
Text conversion of header file \A_MEDIDAS\PROJETOS\BRASIL\BLOCO GAVIAO\JACOBINA\CANIF27\sco\CANIF27_018.45_00002.asd.ref
 -------------------------------------------------------------
Falhada                                                                                                                                                     
The instrument number was  16586/1
New ASD spectrum file: Program version = 6.00 file version = 1.00
Spectrum saved: 10/16/2018 at 10:03:25
VNIR integration time : 34
VNIR channel 1 wavelength = 350 wavelength step = 1
There were 50 samples per data value
xmin = 350 xmax= 2500
ymin= 0 ymax= 1.25
The instrument digitizes spectral values to 16 bits
SWIR1 gain was 214 offset was 2097
SWIR2 gain was 513 offset was 2267
Join between VNIR and SWIR1 was 1000 nm
Join between SWIR1 and SWIR2 was 1830 nm
Absolute Reflectance is Enabled
The Absolute Reflectance File is abs165861.ref
VNIR dark signal subtracted
50 dark measurements taken Tue Oct 16 09:52:54 2018
DCC value was 0
Data is compared to a white reference:
60 white reference measurements taken Tue Oct 16 09:53:02 2018
There was no foreoptic attached
Spectrum file is reflectance data
GPS-Latitude is S0
GPS-Longitude is E0
GPS-Altitude is 0
GPS-UTC is Wed Dec 31 17:00:00 1969

Smart Detector
Serial#  0
Signal (A)  0.000E00
Dark (A)  0.000E00
Ref (A)  0.000E00
Status  0 - Uninitialized
Gain  E-4
Averaging  0
Temp (C)  0.0
Humid (%)  0.0

Reflectance Absolute
Wavelength	CANIF27_18.45_00002.asd.ref
350	 9.09814089536667E-02 
351	 9.11360383033752E-02 
352	 8.61806869506836E-02 
353	 9.00346785783768E-02 
354	 0.103081956505775 
355	 9.31717604398727E-02 
356	 9.04618799686432E-02 
357	 9.37601700425148E-02 
358	 9.28177461028099E-02 
359	 8.36774557828903E-02 
360	 0.08610450476408 
361	 9.59429740905762E-02 
362	 9.47305411100388E-02 
363	 9.05996114015579E-02 
364	 8.86834785342216E-02 
365	 9.02449414134026E-02 
366	 9.19552817940712E-02 
367	 9.11322608590126E-02 
368	 9.00794491171837E-02 
369	 9.10615846514702E-02 
370	 9.28579643368721E-02 
371	 9.33300703763962E-02 
372	 9.21580567955971E-02 
373	 9.01418477296829E-02 
374	 8.85424688458443E-02 
375	 8.96303206682205E-02 
376	 9.24539491534233E-02 
377	 9.30507630109787E-02 
378	 9.26654636859894E-02 
379	 9.24227684736252E-02 
380	 9.26128625869751E-02 
381	 9.14353728294373E-02 
382	 9.18644815683365E-02 
383	 9.26227048039436E-02 
384	 9.19240564107895E-02 
385	 9.45105031132698E-02 
386	 9.56414043903351E-02 
387	 9.50643867254257E-02 
388	 9.66431722044945E-02 
389	 9.76209938526154E-02 
390	 9.68047231435776E-02 
391	 9.49297919869423E-02 
392	 9.60934162139893E-02 
393	 9.70911160111427E-02 
394	 9.69989821314812E-02 
395	 9.59456786513329E-02 
396	 9.47776660323143E-02 
397	 9.65801253914833E-02 
398	 9.94627624750137E-02 
399	 9.83203426003456E-02 
400	 9.80746224522591E-02 
401	 9.84065234661102E-02 
402	 9.84841138124466E-02 
403	 9.78916883468628E-02 
404	 9.76320877671242E-02 
405	 9.80488657951355E-02 
406	 9.89276841282845E-02 
407	 9.87840741872787E-02 
408	 9.94469150900841E-02 
409	 0.100570961833 
410	 0.100480146706104 
411	 0.100571237504482 
412	 0.100156590342522 
413	 9.96690317988396E-02 
414	 0.101788364350796 
415	 0.101582318544388 
416	 0.10042941570282 
417	 0.100712560117245 
418	 0.101772919297218 
419	 0.102041244506836 
420	 0.101754769682884 
421	 0.102200172841549 
422	 0.10285995900631 
423	 0.103417776525021 
424	 0.10371945053339 
425	 0.103774890303612 
426	 0.104688264429569 
427	 0.105635039508343 
428	 0.105745665729046 
429	 0.105866827070713 
430	 0.105917558073997 
431	 0.106106840074062 
432	 0.106706075370312 
433	 0.106754720211029 
434	 0.107065998017788 
435	 0.107974871993065 
436	 0.108871102333069 
437	 0.108639493584633 
438	 0.108420379459858 
439	 0.109362438321114 
440	 0.110393688082695 
441	 0.110808536410332 
442	 0.11075235158205 
443	 0.110875621438026 
444	 0.110876441001892 
445	 0.111032858490944 
446	 0.111448772251606 
447	 0.111869864165783 
448	 0.11216214299202 
449	 0.112248785793781 
450	 0.112167477607727 
451	 0.112256571650505 
452	 0.1123336404562 
453	 0.112370833754539 
454	 0.112472459673882 
455	 0.112783014774323 
456	 0.112992435693741 
457	 0.112971268594265 
458	 0.113009668886662 
459	 0.113392293453217 
460	 0.113813415169716 
461	 0.113926164805889 
462	 0.114286527037621 
463	 0.114436902105808 
464	 0.11445414274931 
465	 0.114877812564373 
466	 0.115173742175102 
467	 0.115408264100552 
468	 0.115652747452259 
469	 0.115717031061649 
470	 0.115971080958843 
471	 0.116361662745476 
472	 0.116658829152584 
473	 0.116687752306461 
474	 0.116911575198174 
475	 0.117359645664692 
476	 0.117568224668503 
477	 0.117958188056946 
478	 0.118394576013088 
479	 0.11869689822197 
480	 0.118854679167271 
481	 0.119181588292122 
482	 0.119585499167442 
483	 0.119817733764648 
484	 0.120166175067425 
485	 0.120500676333904 
486	 0.120740637183189 
487	 0.120920695364475 
488	 0.121323883533478 
489	 0.121714726090431 
490	 0.121858961880207 
491	 0.122013904154301 
492	 0.12213733792305 
493	 0.122230298817158 
494	 0.122315868735313 
495	 0.12234053760767 
496	 0.122441619634628 
497	 0.122684516012669 
498	 0.122985512018204 
499	 0.123281747102737 
500	 0.123501554131508 
501	 0.123654872179031 
502	 0.124082662165165 
503	 0.124415144324303 
504	 0.124627903103828 
505	 0.124972462654114 
506	 0.125187605619431 
507	 0.125336796045303 
508	 0.12550650537014 
509	 0.125722974538803 
510	 0.125933110713959 
511	 0.126115083694458 
512	 0.126261562108994 
513	 0.126368075609207 
514	 0.126508682966232 
515	 0.126641809940338 
516	 0.126618653535843 
517	 0.126781851053238 
518	 0.126947119832039 
519	 0.126970231533051 
520	 0.127102613449097 
521	 0.127244547009468 
522	 0.12736564874649 
523	 0.12746325135231 
524	 0.127498611807823 
525	 0.127550318837166 
526	 0.127614960074425 
527	 0.127570480108261 
528	 0.127619281411171 
529	 0.127708360552788 
530	 0.127753213047981 
531	 0.127798438072205 
532	 0.127820774912834 
533	 0.127853319048882 
534	 0.127950310707092 
535	 0.127998366951942 
536	 0.128022745251656 
537	 0.128068700432777 
538	 0.128188148140907 
539	 0.12827479839325 
540	 0.12830413877964 
541	 0.128306105732918 
542	 0.128412753343582 
543	 0.128513872623444 
544	 0.128616914153099 
545	 0.128818333148956 
546	 0.128858909010887 
547	 0.128894582390785 
548	 0.129015162587166 
549	 0.128992170095444 
550	 0.129068404436111 
551	 0.129204973578453 
552	 0.129271507263184 
553	 0.129302769899368 
554	 0.129331275820732 
555	 0.12935645878315 
556	 0.129342183470726 
557	 0.129280298948288 
558	 0.129233792424202 
559	 0.129248574376106 
560	 0.129282787442207 
561	 0.129342555999756 
562	 0.12935845553875 
563	 0.129259049892426 
564	 0.129263237118721 
565	 0.129300862550735 
566	 0.12931016087532 
567	 0.129286393523216 
568	 0.129193484783173 
569	 0.129060089588165 
570	 0.128927916288376 
571	 0.128806367516518 
572	 0.128699019551277 
573	 0.128604233264923 
574	 0.128518685698509 
575	 0.128452926874161 
576	 0.128455087542534 
577	 0.128512889146805 
578	 0.128496497869492 
579	 0.128497242927551 
580	 0.128452703356743 
581	 0.128306344151497 
582	 0.128253519535065 
583	 0.128201425075531 
584	 0.128103733062744 
585	 0.127961903810501 
586	 0.127672746777534 
587	 0.127377048134804 
588	 0.127212479710579 
589	 0.127228930592537 
590	 0.127206102013588 
591	 0.127134203910828 
592	 0.127074658870697 
593	 0.126941129565239 
594	 0.126809641718864 
595	 0.126682877540588 
596	 0.126475423574448 
597	 0.126282796263695 
598	 0.126061603426933 
599	 0.125770792365074 
600	 0.125454485416412 
601	 0.125135436654091 
602	 0.124857924878597 
603	 0.124658554792404 
604	 0.12447764724493 
605	 0.124311722815037 
606	 0.124142669141293 
607	 0.123924992978573 
608	 0.123726837337017 
609	 0.123509861528873 
610	 0.123242512345314 
611	 0.122995652258396 
612	 0.122776687145233 
613	 0.122553132474422 
614	 0.122280791401863 
615	 0.122043468058109 
616	 0.121848605573177 
617	 0.121667273342609 
618	 0.121429532766342 
619	 0.121182665228844 
620	 0.120951555669308 
621	 0.120741851627827 
622	 0.120501860976219 
623	 0.120277635753155 
624	 0.120072469115257 
625	 0.119859412312508 
626	 0.119627460837364 
627	 0.11940735578537 
628	 0.119211807847023 
629	 0.119016140699387 
630	 0.118785940110683 
631	 0.118542298674583 
632	 0.118321962654591 
633	 0.118150375783443 
634	 0.117942102253437 
635	 0.117701768875122 
636	 0.117501631379128 
637	 0.117300808429718 
638	 0.11707891523838 
639	 0.116848915815353 
640	 0.116681858897209 
641	 0.116487607359886 
642	 0.116287350654602 
643	 0.116115815937519 
644	 0.115888990461826 
645	 0.115658216178417 
646	 0.1154470667243 
647	 0.115250416100025 
648	 0.115034461021423 
649	 0.114839017391205 
650	 0.114675253629684 
651	 0.114476263523102 
652	 0.114277899265289 
653	 0.114081494510174 
654	 0.113888755440712 
655	 0.113758534193039 
656	 0.113611117005348 
657	 0.113417312502861 
658	 0.113199628889561 
659	 0.113020539283752 
660	 0.112864434719086 
661	 0.112696848809719 
662	 0.112469144165516 
663	 0.112308904528618 
664	 0.112183108925819 
665	 0.112026765942574 
666	 0.111891411244869 
667	 0.111727029085159 
668	 0.111543565988541 
669	 0.111393958330154 
670	 0.111258797347546 
671	 0.111095100641251 
672	 0.11089813709259 
673	 0.110731333494186 
674	 0.110584318637848 
675	 0.110456436872482 
676	 0.110339902341366 
677	 0.110201291739941 
678	 0.110039673745632 
679	 0.109880819916725 
680	 0.109761878848076 
681	 0.109655857086182 
682	 0.109546341001987 
683	 0.109425343573093 
684	 0.109295219182968 
685	 0.109162949025631 
686	 0.109035141766071 
687	 0.108917653560638 
688	 0.108818702399731 
689	 0.108698919415474 
690	 0.108566410839558 
691	 0.108453318476677 
692	 0.108354084193707 
693	 0.108266316354275 
694	 0.108182325959206 
695	 0.108088918030262 
696	 0.107981383800507 
697	 0.107889004051685 
698	 0.107825867831707 
699	 0.107754983007908 
700	 0.107630237936974 
701	 0.107525244355202 
702	 0.107522338628769 
703	 0.107463456690311 
704	 0.107368849217892 
705	 0.107279613614082 
706	 0.107238844037056 
707	 0.107180647552013 
708	 0.107128173112869 
709	 0.10709448158741 
710	 0.107046380639076 
711	 0.107013501226902 
712	 0.106978319585323 
713	 0.106921941041946 
714	 0.106871455907822 
715	 0.106860905885696 
716	 0.106846749782562 
717	 0.106762379407883 
718	 0.106773033738136 
719	 0.106766238808632 
720	 0.106714941561222 
721	 0.106731861829758 
722	 0.106723003089428 
723	 0.106747768819332 
724	 0.106821075081825 
725	 0.106757991015911 
726	 0.106719896197319 
727	 0.106726638972759 
728	 0.106743358075619 
729	 0.106759659945965 
730	 0.106787644326687 
731	 0.106821969151497 
732	 0.106843292713165 
733	 0.106842458248138 
734	 0.10686095058918 
735	 0.106907390058041 
736	 0.10693135112524 
737	 0.107016853988171 
738	 0.107087433338165 
739	 0.107080921530724 
740	 0.107092350721359 
741	 0.107094243168831 
742	 0.107112854719162 
743	 0.107178695499897 
744	 0.107221409678459 
745	 0.107278808951378 
746	 0.107354089617729 
747	 0.107418015599251 
748	 0.107485644519329 
749	 0.107520006597042 
750	 0.107537761330605 
751	 0.107643812894821 
752	 0.107737421989441 
753	 0.107801593840122 
754	 0.107845231890678 
755	 0.107880845665932 
756	 0.107944376766682 
757	 0.108033508062363 
758	 0.108122996985912 
759	 0.108172178268433 
760	 0.108236141502857 
761	 0.108316019177437 
762	 0.108375489711761 
763	 0.108475498855114 
764	 0.108568042516708 
765	 0.108618155121803 
766	 0.108628660440445 
767	 0.108673974871635 
768	 0.108749344944954 
769	 0.108833730220795 
770	 0.108914539217949 
771	 0.109006024897099 
772	 0.109103038907051 
773	 0.109188817441463 
774	 0.109227366745472 
775	 0.109283439815044 
776	 0.109347239136696 
777	 0.109379716217518 
778	 0.109454654157162 
779	 0.109526105225086 
780	 0.109575003385544 
781	 0.109616599977016 
782	 0.109647326171398 
783	 0.109695665538311 
784	 0.109764903783798 
785	 0.109816290438175 
786	 0.109837636351585 
787	 0.109857574105263 
788	 0.109893195331097 
789	 0.109906665980816 
790	 0.109934367239475 
791	 0.10995139926672 
792	 0.10993730276823 
793	 0.109968692064285 
794	 0.109993994235992 
795	 0.10998073220253 
796	 0.109923377633095 
797	 0.109882079064846 
798	 0.109887175261974 
799	 0.10990908741951 
800	 0.109880827367306 
801	 0.109846405684948 
802	 0.109792351722717 
803	 0.10973647236824 
804	 0.109734021127224 
805	 0.10968229919672 
806	 0.109612181782722 
807	 0.109565980732441 
808	 0.109558120369911 
809	 0.109522007405758 
810	 0.109449721872807 
811	 0.109359741210938 
812	 0.109292164444923 
813	 0.109206184744835 
814	 0.1091238707304 
815	 0.109072893857956 
816	 0.109022602438927 
817	 0.10893203318119 
818	 0.108824469149113 
819	 0.108742102980614 
820	 0.108635537326336 
821	 0.108546949923038 
822	 0.108476310968399 
823	 0.108395792543888 
824	 0.108333826065063 
825	 0.108249582350254 
826	 0.108133517205715 
827	 0.108012571930885 
828	 0.107897877693176 
829	 0.107817471027374 
830	 0.107759684324265 
831	 0.107666693627834 
832	 0.107560105621815 
833	 0.107443004846573 
834	 0.10732164978981 
835	 0.107210427522659 
836	 0.107074417173862 
837	 0.106933459639549 
838	 0.106817834079266 
839	 0.106749780476093 
840	 0.106682159006596 
841	 0.106591105461121 
842	 0.106474652886391 
843	 0.106368906795979 
844	 0.106224551796913 
845	 0.106059975922108 
846	 0.105915680527687 
847	 0.105823092162609 
848	 0.105726167559624 
849	 0.105641551315784 
850	 0.10558520257473 
851	 0.105443216860294 
852	 0.105313561856747 
853	 0.105234414339066 
854	 0.105191312730312 
855	 0.105100117623806 
856	 0.105034172534943 
857	 0.104985877871513 
858	 0.10490420460701 
859	 0.104798257350922 
860	 0.104696102440357 
861	 0.10460589081049 
862	 0.104520983994007 
863	 0.104448832571507 
864	 0.10433641076088 
865	 0.104227036237717 
866	 0.104209452867508 
867	 0.104156278073788 
868	 0.104069009423256 
869	 0.103984825313091 
870	 0.10394462198019 
871	 0.103865288197994 
872	 0.103791616857052 
873	 0.103730499744415 
874	 0.103653103113174 
875	 0.10363581776619 
876	 0.103561758995056 
877	 0.103455536067486 
878	 0.103468529880047 
879	 0.103486366569996 
880	 0.103430390357971 
881	 0.103332817554474 
882	 0.103311784565449 
883	 0.103296287357807 
884	 0.103246867656708 
885	 0.103195764124393 
886	 0.103217676281929 
887	 0.103140838444233 
888	 0.103101849555969 
889	 0.103125467896461 
890	 0.103102572262287 
891	 0.103118106722832 
892	 0.103103078901768 
893	 0.103065587580204 
894	 0.103090465068817 
895	 0.103123381733894 
896	 0.103114567697048 
897	 0.103081002831459 
898	 0.103087119758129 
899	 0.103069357573986 
900	 0.103075861930847 
901	 0.103091202676296 
902	 0.103056967258453 
903	 0.103072509169579 
904	 0.10313706099987 
905	 0.103213034570217 
906	 0.103252202272415 
907	 0.10327685624361 
908	 0.103267692029476 
909	 0.103244140744209 
910	 0.103253528475761 
911	 0.103334538638592 
912	 0.103387087583542 
913	 0.103404320776463 
914	 0.103441536426544 
915	 0.103515490889549 
916	 0.103600807487965 
917	 0.103671610355377 
918	 0.103709392249584 
919	 0.103710778057575 
920	 0.103732824325562 
921	 0.103784516453743 
922	 0.103855557739735 
923	 0.103966854512691 
924	 0.104002498090267 
925	 0.10403797775507 
926	 0.104149952530861 
927	 0.104213878512383 
928	 0.104274272918701 
929	 0.104345746338367 
930	 0.104427196085453 
931	 0.104501247406006 
932	 0.104552581906319 
933	 0.104637667536736 
934	 0.104746580123901 
935	 0.104752033948898 
936	 0.10486713796854 
937	 0.104987524449825 
938	 0.10503114759922 
939	 0.105037443339825 
940	 0.105139568448067 
941	 0.10523410141468 
942	 0.105281785130501 
943	 0.105338156223297 
944	 0.10542868822813 
945	 0.10548859834671 
946	 0.105570666491985 
947	 0.105751864612103 
948	 0.105817280709744 
949	 0.105836249887943 
950	 0.105886280536652 
951	 0.105994328856468 
952	 0.106028810143471 
953	 0.10612078756094 
954	 0.106262020766735 
955	 0.106376513838768 
956	 0.106366321444511 
957	 0.106415718793869 
958	 0.106530919671059 
959	 0.106663912534714 
960	 0.106764927506447 
961	 0.106827527284622 
962	 0.10697328299284 
963	 0.10711795091629 
964	 0.107042454183102 
965	 0.107138819992542 
966	 0.107275187969208 
967	 0.107389271259308 
968	 0.107496589422226 
969	 0.107593849301338 
970	 0.107703126966953 
971	 0.107754595577717 
972	 0.107717655599117 
973	 0.107747212052345 
974	 0.107873938977718 
975	 0.107940472662449 
976	 0.107895389199257 
977	 0.107925467193127 
978	 0.108110100030899 
979	 0.108256638050079 
980	 0.108273796737194 
981	 0.10824128985405 
982	 0.108340866863728 
983	 0.108451969921589 
984	 0.108492247760296 
985	 0.108453944325447 
986	 0.108430363237858 
987	 0.108451873064041 
988	 0.108552560210228 
989	 0.108665704727173 
990	 0.108594290912151 
991	 0.108742609620094 
992	 0.108808368444443 
993	 0.108746193349361 
994	 0.108836755156517 
995	 0.108854472637177 
996	 0.108965247869492 
997	 0.109088160097599 
998	 0.109082415699959 
999	 0.109113804996014 
1000	 0.109155111014843 
1001	 0.106910400092602 
1002	 0.106921672821045 
1003	 0.106996193528175 
1004	 0.107145547866821 
1005	 0.107212461531162 
1006	 0.107258751988411 
1007	 0.107356779277325 
1008	 0.107341438531876 
1009	 0.107332013547421 
1010	 0.107326224446297 
1011	 0.107311375439167 
1012	 0.107231885194778 
1013	 0.107234567403793 
1014	 0.107272438704967 
1015	 0.107294581830502 
1016	 0.107360854744911 
1017	 0.107381694018841 
1018	 0.107326187193394 
1019	 0.107328288257122 
1020	 0.107350781559944 
1021	 0.107367135584354 
1022	 0.107389450073242 
1023	 0.107492573559284 
1024	 0.107526496052742 
1025	 0.107520088553429 
1026	 0.107503682374954 
1027	 0.107418328523636 
1028	 0.107415623962879 
1029	 0.107459388673306 
1030	 0.107456311583519 
1031	 0.107486516237259 
1032	 0.107553273439407 
1033	 0.107479460537434 
1034	 0.10738417506218 
1035	 0.107324860990047 
1036	 0.107271514832973 
1037	 0.107239782810211 
1038	 0.107286401093006 
1039	 0.107277557253838 
1040	 0.107238046824932 
1041	 0.107220448553562 
1042	 0.107203871011734 
1043	 0.107165411114693 
1044	 0.107124395668507 
1045	 0.107105381786823 
1046	 0.107069052755833 
1047	 0.107030980288982 
1048	 0.107069820165634 
1049	 0.107167348265648 
1050	 0.107197746634483 
1051	 0.107201643288136 
1052	 0.107140012085438 
1053	 0.107023388147354 
1054	 0.106990359723568 
1055	 0.107022032141685 
1056	 0.107004776597023 
1057	 0.107028424739838 
1058	 0.106980912387371 
1059	 0.106853947043419 
1060	 0.106756821274757 
1061	 0.106704413890839 
1062	 0.106759428977966 
1063	 0.106904864311218 
1064	 0.106950201094151 
1065	 0.106958918273449 
1066	 0.106999948620796 
1067	 0.106944032013416 
1068	 0.106879606842995 
1069	 0.106832213699818 
1070	 0.106763310730457 
1071	 0.106701001524925 
1072	 0.10663665086031 
1073	 0.106606714427471 
1074	 0.106619149446487 
1075	 0.10663428902626 
1076	 0.106623753905296 
1077	 0.106697700917721 
1078	 0.106688119471073 
1079	 0.106670647859573 
1080	 0.106745831668377 
1081	 0.106704123318195 
1082	 0.106646329164505 
1083	 0.106626652181149 
1084	 0.106557801365852 
1085	 0.106515377759933 
1086	 0.10649249702692 
1087	 0.106509119272232 
1088	 0.106499440968037 
1089	 0.106501929461956 
1090	 0.106504328548908 
1091	 0.106504142284393 
1092	 0.10652956366539 
1093	 0.106538280844688 
1094	 0.106521651148796 
1095	 0.106536902487278 
1096	 0.106559552252293 
1097	 0.106591947376728 
1098	 0.106658980250359 
1099	 0.106702446937561 
1100	 0.106751546263695 
1101	 0.106785736978054 
1102	 0.106798499822617 
1103	 0.106823727488518 
1104	 0.106866270303726 
1105	 0.106856524944305 
1106	 0.106852740049362 
1107	 0.106852538883686 
1108	 0.106835015118122 
1109	 0.106803081929684 
1110	 0.106847159564495 
1111	 0.106940910220146 
1112	 0.107052773237228 
1113	 0.107223644852638 
1114	 0.107310026884079 
1115	 0.107335805892944 
1116	 0.107339948415756 
1117	 0.107354961335659 
1118	 0.1073377430439 
1119	 0.107390590012074 
1120	 0.107468724250793 
1121	 0.107560008764267 
1122	 0.107632018625736 
1123	 0.107682913541794 
1124	 0.107748955488205 
1125	 0.107747785747051 
1126	 0.107765458524227 
1127	 0.10780992358923 
1128	 0.107758738100529 
1129	 0.107820712029934 
1130	 0.107921116054058 
1131	 0.107959754765034 
1132	 0.108075886964798 
1133	 0.108109518885612 
1134	 0.108150072395802 
1135	 0.108153603971004 
1136	 0.108221098780632 
1137	 0.108281292021275 
1138	 0.108365051448345 
1139	 0.1084154099226 
1140	 0.108481787145138 
1141	 0.108530707657337 
1142	 0.108580015599728 
1143	 0.108689144253731 
1144	 0.108753025531769 
1145	 0.108850918710232 
1146	 0.108971044421196 
1147	 0.109070129692554 
1148	 0.10917554795742 
1149	 0.109256826341152 
1150	 0.10930622369051 
1151	 0.109377942979336 
1152	 0.109441183507442 
1153	 0.109517127275467 
1154	 0.109626092016697 
1155	 0.109680272638798 
1156	 0.109713718295097 
1157	 0.109804295003414 
1158	 0.109908394515514 
1159	 0.110009118914604 
1160	 0.110142379999161 
1161	 0.110285043716431 
1162	 0.110383734107018 
1163	 0.110488660633564 
1164	 0.110639847815037 
1165	 0.110690020024776 
1166	 0.110761173069477 
1167	 0.110832616686821 
1168	 0.110925599932671 
1169	 0.110991075634956 
1170	 0.111123733222485 
1171	 0.111302480101585 
1172	 0.111417584121227 
1173	 0.1115438118577 
1174	 0.111677318811417 
1175	 0.111782647669315 
1176	 0.111855909228325 
1177	 0.111934013664722 
1178	 0.112034745514393 
1179	 0.112106755375862 
1180	 0.112232372164726 
1181	 0.112384460866451 
1182	 0.11246132850647 
1183	 0.112595938146114 
1184	 0.112788178026676 
1185	 0.112918548285961 
1186	 0.113054506480694 
1187	 0.113188326358795 
1188	 0.113287217915058 
1189	 0.113379932940006 
1190	 0.113538354635239 
1191	 0.113657005131245 
1192	 0.113793425261974 
1193	 0.113929979503155 
1194	 0.114042170345783 
1195	 0.114198662340641 
1196	 0.114361897110939 
1197	 0.1145044490695 
1198	 0.114662878215313 
1199	 0.114812783896923 
1200	 0.114954926073551 
1201	 0.115090385079384 
1202	 0.115221589803696 
1203	 0.115338519215584 
1204	 0.11546365916729 
1205	 0.115577086806297 
1206	 0.115724377334118 
1207	 0.115902632474899 
1208	 0.11604468524456 
1209	 0.116189040243626 
1210	 0.116341575980186 
1211	 0.116472564637661 
1212	 0.116627767682076 
1213	 0.116819947957993 
1214	 0.116993419826031 
1215	 0.117138981819153 
1216	 0.117280378937721 
1217	 0.117399141192436 
1218	 0.117528595030308 
1219	 0.117693193256855 
1220	 0.117889754474163 
1221	 0.118067279458046 
1222	 0.118275322020054 
1223	 0.118454545736313 
1224	 0.118606314063072 
1225	 0.118783541023731 
1226	 0.118973486125469 
1227	 0.11913975328207 
1228	 0.119317829608917 
1229	 0.11946876347065 
1230	 0.11960569024086 
1231	 0.119762279093266 
1232	 0.119925513863564 
1233	 0.120108723640442 
1234	 0.12029917538166 
1235	 0.120480097830296 
1236	 0.120664283633232 
1237	 0.120817877352238 
1238	 0.120991356670856 
1239	 0.121168054640293 
1240	 0.121365405619144 
1241	 0.121579401195049 
1242	 0.121770732104778 
1243	 0.121963657438755 
1244	 0.122153386473656 
1245	 0.122341580688953 
1246	 0.122518837451935 
1247	 0.122697189450264 
1248	 0.122855745255947 
1249	 0.123021148145199 
1250	 0.123208977282047 
1251	 0.123438365757465 
1252	 0.123648315668106 
1253	 0.123815730214119 
1254	 0.124016940593719 
1255	 0.12423063069582 
1256	 0.12441148608923 
1257	 0.124606847763062 
1258	 0.124802187085152 
1259	 0.124988801777363 
1260	 0.125153288245201 
1261	 0.125350326299667 
1262	 0.125569194555283 
1263	 0.125760316848755 
1264	 0.125944286584854 
1265	 0.126141235232353 
1266	 0.126339048147202 
1267	 0.12652151286602 
1268	 0.126696780323982 
1269	 0.126891702413559 
1270	 0.127075299620628 
1271	 0.127275884151459 
1272	 0.127502396702766 
1273	 0.127706229686737 
1274	 0.127878591418266 
1275	 0.128054544329643 
1276	 0.128240689635277 
1277	 0.128441616892815 
1278	 0.128661051392555 
1279	 0.128859773278236 
1280	 0.129066333174706 
1281	 0.129278749227524 
1282	 0.129479587078094 
1283	 0.129676282405853 
1284	 0.129878833889961 
1285	 0.130071446299553 
1286	 0.130273684859276 
1287	 0.130487844347954 
1288	 0.13069611787796 
1289	 0.130894988775253 
1290	 0.131099104881287 
1291	 0.131305709481239 
1292	 0.131536841392517 
1293	 0.131694063544273 
1294	 0.131893694400787 
1295	 0.132121175527573 
1296	 0.132267311215401 
1297	 0.132439434528351 
1298	 0.132657185196877 
1299	 0.132863774895668 
1300	 0.13309209048748 
1301	 0.133323818445206 
1302	 0.133517041802406 
1303	 0.133698686957359 
1304	 0.133816346526146 
1305	 0.13398976624012 
1306	 0.134180247783661 
1307	 0.134382367134094 
1308	 0.134614661335945 
1309	 0.134821861982346 
1310	 0.135023534297943 
1311	 0.135229855775833 
1312	 0.13542141020298 
1313	 0.135632216930389 
1314	 0.1358522772789 
1315	 0.136080503463745 
1316	 0.136315613985062 
1317	 0.136564686894417 
1318	 0.136813700199127 
1319	 0.137040495872498 
1320	 0.137262865900993 
1321	 0.137475162744522 
1322	 0.137711003422737 
1323	 0.137962102890015 
1324	 0.138208523392677 
1325	 0.138455331325531 
1326	 0.138695269823074 
1327	 0.13891826570034 
1328	 0.139150559902191 
1329	 0.139384865760803 
1330	 0.139621406793594 
1331	 0.139846682548523 
1332	 0.140081614255905 
1333	 0.140333965420723 
1334	 0.140581965446472 
1335	 0.140839278697968 
1336	 0.141074821352959 
1337	 0.14127790927887 
1338	 0.141506478190422 
1339	 0.141741886734962 
1340	 0.141970157623291 
1341	 0.142205581068993 
1342	 0.142458602786064 
1343	 0.142675250768661 
1344	 0.142885103821754 
1345	 0.143128961324692 
1346	 0.143372163176537 
1347	 0.143632754683495 
1348	 0.14389032125473 
1349	 0.144118174910545 
1350	 0.144348815083504 
1351	 0.144595593214035 
1352	 0.144845277070999 
1353	 0.145086884498596 
1354	 0.14533531665802 
1355	 0.14559468626976 
1356	 0.145851030945778 
1357	 0.146106258034706 
1358	 0.146379947662354 
1359	 0.14663253724575 
1360	 0.146856293082237 
1361	 0.147104412317276 
1362	 0.147386103868484 
1363	 0.147629275918007 
1364	 0.147839248180389 
1365	 0.148074880242348 
1366	 0.148313239216805 
1367	 0.148534581065178 
1368	 0.148766979575157 
1369	 0.148999646306038 
1370	 0.149185687303543 
1371	 0.149333074688911 
1372	 0.149518027901649 
1373	 0.149703741073608 
1374	 0.149853274226189 
1375	 0.150051221251488 
1376	 0.150249987840652 
1377	 0.150395780801773 
1378	 0.150613218545914 
1379	 0.150798007845879 
1380	 0.150903344154358 
1381	 0.150981947779655 
1382	 0.150998592376709 
1383	 0.150967910885811 
1384	 0.150827541947365 
1385	 0.150649219751358 
1386	 0.150337338447571 
1387	 0.149882227182388 
1388	 0.149410471320152 
1389	 0.148825287818909 
1390	 0.14827361702919 
1391	 0.147628128528595 
1392	 0.147099733352661 
1393	 0.146564826369286 
1394	 0.146160542964935 
1395	 0.145854517817497 
1396	 0.145606055855751 
1397	 0.145432949066162 
1398	 0.145332112908363 
1399	 0.145313307642937 
1400	 0.145346090197563 
1401	 0.145420998334885 
1402	 0.145510822534561 
1403	 0.145576104521751 
1404	 0.145683720707893 
1405	 0.145847156643867 
1406	 0.14604663848877 
1407	 0.146267369389534 
1408	 0.146524205803871 
1409	 0.14686244726181 
1410	 0.147264420986176 
1411	 0.147722840309143 
1412	 0.148281738162041 
1413	 0.148846536874771 
1414	 0.149462834000587 
1415	 0.150057330727577 
1416	 0.150686457753181 
1417	 0.151312649250031 
1418	 0.151952520012856 
1419	 0.15254607796669 
1420	 0.153160631656647 
1421	 0.153708875179291 
1422	 0.154206082224846 
1423	 0.154667526483536 
1424	 0.155117690563202 
1425	 0.155488342046738 
1426	 0.155778720974922 
1427	 0.156055957078934 
1428	 0.156277671456337 
1429	 0.156484499573708 
1430	 0.156669229269028 
1431	 0.156829833984375 
1432	 0.156939923763275 
1433	 0.15706741809845 
1434	 0.157185360789299 
1435	 0.157300740480423 
1436	 0.157424852252007 
1437	 0.157550841569901 
1438	 0.157688990235329 
1439	 0.157791718840599 
1440	 0.157866030931473 
1441	 0.157968670129776 
1442	 0.1580640822649 
1443	 0.158166781067848 
1444	 0.158332005143166 
1445	 0.158509224653244 
1446	 0.158688738942146 
1447	 0.158885225653648 
1448	 0.159092113375664 
1449	 0.159305423498154 
1450	 0.159515470266342 
1451	 0.159735783934593 
1452	 0.159964844584465 
1453	 0.160186916589737 
1454	 0.160438388586044 
1455	 0.160724058747292 
1456	 0.160981729626656 
1457	 0.161236315965652 
1458	 0.161501824855804 
1459	 0.161760061979294 
1460	 0.162025302648544 
1461	 0.162299707531929 
1462	 0.162587463855743 
1463	 0.162888556718826 
1464	 0.163179010152817 
1465	 0.163490414619446 
1466	 0.163772985339165 
1467	 0.164029181003571 
1468	 0.164285033941269 
1469	 0.164511278271675 
1470	 0.164772272109985 
1471	 0.165054053068161 
1472	 0.165326610207558 
1473	 0.165626466274261 
1474	 0.165905341506004 
1475	 0.166168168187141 
1476	 0.166416704654694 
1477	 0.166677907109261 
1478	 0.166915029287338 
1479	 0.167123794555664 
1480	 0.167348265647888 
1481	 0.167567923665047 
1482	 0.167797237634659 
1483	 0.168052420020103 
1484	 0.168301999568939 
1485	 0.168525949120522 
1486	 0.168722301721573 
1487	 0.168947637081146 
1488	 0.16916711628437 
1489	 0.169364988803864 
1490	 0.169616773724556 
1491	 0.16984649002552 
1492	 0.17002235352993 
1493	 0.170226469635963 
1494	 0.170447915792465 
1495	 0.170639395713806 
1496	 0.170826375484467 
1497	 0.170993015170097 
1498	 0.171130135655403 
1499	 0.171277865767479 
1500	 0.171429023146629 
1501	 0.171560704708099 
1502	 0.171683177351952 
1503	 0.171795755624771 
1504	 0.171869650483131 
1505	 0.171981856226921 
1506	 0.172114819288254 
1507	 0.172238290309906 
1508	 0.172384902834892 
1509	 0.172508284449577 
1510	 0.17260505259037 
1511	 0.172720834612846 
1512	 0.172826170921326 
1513	 0.172950759530067 
1514	 0.17309445142746 
1515	 0.173239305615425 
1516	 0.17339925467968 
1517	 0.173558846116066 
1518	 0.17373038828373 
1519	 0.173875421285629 
1520	 0.174014568328857 
1521	 0.174148827791214 
1522	 0.17424850165844 
1523	 0.174375087022781 
1524	 0.174512207508087 
1525	 0.174656063318253 
1526	 0.174828395247459 
1527	 0.174974381923676 
1528	 0.175090312957764 
1529	 0.175242602825165 
1530	 0.175398766994476 
1531	 0.175563499331474 
1532	 0.175756007432938 
1533	 0.175944283604622 
1534	 0.176103174686432 
1535	 0.176255062222481 
1536	 0.176424190402031 
1537	 0.176597520709038 
1538	 0.176743179559708 
1539	 0.176918998360634 
1540	 0.17710854113102 
1541	 0.177271500229836 
1542	 0.177470371127129 
1543	 0.177661463618279 
1544	 0.17783796787262 
1545	 0.178041324019432 
1546	 0.178228914737701 
1547	 0.178435534238815 
1548	 0.178652942180634 
1549	 0.178849205374718 
1550	 0.179055854678154 
1551	 0.179244130849838 
1552	 0.179432421922684 
1553	 0.179658606648445 
1554	 0.179893031716347 
1555	 0.180126622319221 
1556	 0.180353403091431 
1557	 0.180567100644112 
1558	 0.18081796169281 
1559	 0.181082829833031 
1560	 0.181333422660828 
1561	 0.181603103876114 
1562	 0.18182361125946 
1563	 0.182027250528336 
1564	 0.182286754250526 
1565	 0.182543486356735 
1566	 0.182781368494034 
1567	 0.183025166392326 
1568	 0.18326410651207 
1569	 0.183473229408264 
1570	 0.18370546400547 
1571	 0.183948904275894 
1572	 0.184209197759628 
1573	 0.18448606133461 
1574	 0.184748083353043 
1575	 0.185020551085472 
1576	 0.185292050242424 
1577	 0.185548603534698 
1578	 0.185808643698692 
1579	 0.186081975698471 
1580	 0.186351582407951 
1581	 0.186611101031303 
1582	 0.186875477433205 
1583	 0.187147468328476 
1584	 0.187422931194305 
1585	 0.187681868672371 
1586	 0.187972232699394 
1587	 0.188290864229202 
1588	 0.188594073057175 
1589	 0.188923895359039 
1590	 0.189217776060104 
1591	 0.189468309283257 
1592	 0.189756229519844 
1593	 0.190042942762375 
1594	 0.190346121788025 
1595	 0.190699324011803 
1596	 0.19100758433342 
1597	 0.191288083791733 
1598	 0.191580444574356 
1599	 0.191861212253571 
1600	 0.192137449979782 
1601	 0.192406445741653 
1602	 0.192696198821068 
1603	 0.192998677492142 
1604	 0.193288996815681 
1605	 0.193595916032791 
1606	 0.193889483809471 
1607	 0.194144293665886 
1608	 0.194420889019966 
1609	 0.194724351167679 
1610	 0.195021539926529 
1611	 0.195323646068573 
1612	 0.195617005228996 
1613	 0.195889160037041 
1614	 0.196167632937431 
1615	 0.196440324187279 
1616	 0.19674676656723 
1617	 0.197089955210686 
1618	 0.19740854203701 
1619	 0.197726830840111 
1620	 0.198031961917877 
1621	 0.198311313986778 
1622	 0.198621213436127 
1623	 0.198960974812508 
1624	 0.199272006750107 
1625	 0.1995819658041 
1626	 0.199875608086586 
1627	 0.200139313936234 
1628	 0.200418636202812 
1629	 0.200693771243095 
1630	 0.200979650020599 
1631	 0.201276630163193 
1632	 0.201573356986046 
1633	 0.201876372098923 
1634	 0.202162861824036 
1635	 0.202456906437874 
1636	 0.20272570848465 
1637	 0.202958449721336 
1638	 0.203243359923363 
1639	 0.203532487154007 
1640	 0.203817188739777 
1641	 0.204153388738632 
1642	 0.204433351755142 
1643	 0.204661086201668 
1644	 0.204928174614906 
1645	 0.205194056034088 
1646	 0.205457791686058 
1647	 0.205741330981255 
1648	 0.206012651324272 
1649	 0.206278622150421 
1650	 0.206527888774872 
1651	 0.206779509782791 
1652	 0.207021549344063 
1653	 0.207212671637535 
1654	 0.207452803850174 
1655	 0.20772448182106 
1656	 0.207972124218941 
1657	 0.208247423171997 
1658	 0.208501100540161 
1659	 0.208709761500359 
1660	 0.208969831466675 
1661	 0.20925198495388 
1662	 0.209505885839462 
1663	 0.209778964519501 
1664	 0.21003545820713 
1665	 0.210263133049011 
1666	 0.21054445207119 
1667	 0.210821941494942 
1668	 0.211074680089951 
1669	 0.211289241909981 
1670	 0.211553648114204 
1671	 0.21180921792984 
1672	 0.212090909481049 
1673	 0.212434992194176 
1674	 0.212696388363838 
1675	 0.212943971157074 
1676	 0.213219061493874 
1677	 0.213465183973312 
1678	 0.213717922568321 
1679	 0.213974744081497 
1680	 0.214213326573372 
1681	 0.21444533765316 
1682	 0.214699372649193 
1683	 0.214986801147461 
1684	 0.215270772576332 
1685	 0.215511307120323 
1686	 0.215751633048058 
1687	 0.215977430343628 
1688	 0.216181725263596 
1689	 0.216449230909348 
1690	 0.216699630022049 
1691	 0.216909572482109 
1692	 0.217166170477867 
1693	 0.217421874403954 
1694	 0.217646971344948 
1695	 0.217878863215446 
1696	 0.218125179409981 
1697	 0.218356862664223 
1698	 0.218603357672691 
1699	 0.218894526362419 
1700	 0.219157755374908 
1701	 0.219376891851425 
1702	 0.219632014632225 
1703	 0.219909146428108 
1704	 0.220129206776619 
1705	 0.220332846045494 
1706	 0.220544099807739 
1707	 0.220743328332901 
1708	 0.22098433971405 
1709	 0.221270933747292 
1710	 0.22155299782753 
1711	 0.221774101257324 
1712	 0.221984758973122 
1713	 0.222218975424767 
1714	 0.222407892346382 
1715	 0.222614526748657 
1716	 0.222828298807144 
1717	 0.223013460636139 
1718	 0.223231837153435 
1719	 0.223465025424957 
1720	 0.223707750439644 
1721	 0.223944097757339 
1722	 0.224161386489868 
1723	 0.224405109882355 
1724	 0.224671751260757 
1725	 0.22491529583931 
1726	 0.225139558315277 
1727	 0.225329592823982 
1728	 0.22545225918293 
1729	 0.225629344582558 
1730	 0.225831851363182 
1731	 0.226001754403114 
1732	 0.226177379488945 
1733	 0.226332038640976 
1734	 0.226429954171181 
1735	 0.22660955786705 
1736	 0.226831167936325 
1737	 0.227026164531708 
1738	 0.227233827114105 
1739	 0.227371260523796 
1740	 0.227523386478424 
1741	 0.227729201316833 
1742	 0.227915987372398 
1743	 0.228104799985886 
1744	 0.228313997387886 
1745	 0.228520646691322 
1746	 0.228731885552406 
1747	 0.228953093290329 
1748	 0.229165107011795 
1749	 0.229333266615868 
1750	 0.229497268795967 
1751	 0.229658037424088 
1752	 0.229829922318459 
1753	 0.230056136846542 
1754	 0.230254679918289 
1755	 0.230449542403221 
1756	 0.230611905455589 
1757	 0.230723157525063 
1758	 0.230882093310356 
1759	 0.231046587228775 
1760	 0.231243431568146 
1761	 0.231488853693008 
1762	 0.231712013483047 
1763	 0.231930196285248 
1764	 0.232153579592705 
1765	 0.232347205281258 
1766	 0.23249489068985 
1767	 0.232634767889977 
1768	 0.232765004038811 
1769	 0.232869878411293 
1770	 0.233016490936279 
1771	 0.233198612928391 
1772	 0.233404502272606 
1773	 0.233645349740982 
1774	 0.233881756663322 
1775	 0.234076902270317 
1776	 0.234245121479034 
1777	 0.23436938226223 
1778	 0.234514147043228 
1779	 0.234703943133354 
1780	 0.234850078821182 
1781	 0.235003814101219 
1782	 0.235173851251602 
1783	 0.235303655266762 
1784	 0.235452696681023 
1785	 0.23562403023243 
1786	 0.235783144831657 
1787	 0.235964581370354 
1788	 0.236081197857857 
1789	 0.236167833209038 
1790	 0.236255958676338 
1791	 0.236309543251991 
1792	 0.2364422082901 
1793	 0.236567541956902 
1794	 0.236660689115524 
1795	 0.236747682094574 
1796	 0.236802011728287 
1797	 0.236902251839638 
1798	 0.237019151449203 
1799	 0.237182676792145 
1800	 0.237331956624985 
1801	 0.23746345937252 
1802	 0.237627878785133 
1803	 0.237736448645592 
1804	 0.237867221236229 
1805	 0.237959697842598 
1806	 0.237996146082878 
1807	 0.238065779209137 
1808	 0.23809777200222 
1809	 0.238138139247894 
1810	 0.238212317228317 
1811	 0.238251224160194 
1812	 0.238310500979424 
1813	 0.238368779420853 
1814	 0.238392129540443 
1815	 0.238497421145439 
1816	 0.238599821925163 
1817	 0.238727614283562 
1818	 0.23891769349575 
1819	 0.239057943224907 
1820	 0.239146664738655 
1821	 0.239261344075203 
1822	 0.239400908350945 
1823	 0.239539846777916 
1824	 0.239704310894012 
1825	 0.239906176924706 
1826	 0.240000888705254 
1827	 0.240035250782967 
1828	 0.240149363875389 
1829	 0.240230962634087 
1830	 0.240298613905907 
1831	 0.250012993812561 
1832	 0.250178605318069 
1833	 0.25020045042038 
1834	 0.249945849180222 
1835	 0.249926805496216 
1836	 0.249988541007042 
1837	 0.250012189149857 
1838	 0.250084578990936 
1839	 0.250178962945938 
1840	 0.250168859958649 
1841	 0.250017583370209 
1842	 0.249903187155724 
1843	 0.24985608458519 
1844	 0.249762713909149 
1845	 0.249654620885849 
1846	 0.249567970633507 
1847	 0.249503150582314 
1848	 0.249375879764557 
1849	 0.24919530749321 
1850	 0.249068737030029 
1851	 0.24888987839222 
1852	 0.248699992895126 
1853	 0.248534098267555 
1854	 0.248357847332954 
1855	 0.24820102751255 
1856	 0.248047217726707 
1857	 0.247854635119438 
1858	 0.247655838727951 
1859	 0.247485846281052 
1860	 0.247252330183983 
1861	 0.247026652097702 
1862	 0.246830374002457 
1863	 0.246684312820435 
1864	 0.246549159288406 
1865	 0.246450498700142 
1866	 0.246285334229469 
1867	 0.24610461294651 
1868	 0.245835676789284 
1869	 0.245625957846642 
1870	 0.24546754360199 
1871	 0.245350211858749 
1872	 0.245289295911789 
1873	 0.245204120874405 
1874	 0.245004802942276 
1875	 0.244787007570267 
1876	 0.244602635502815 
1877	 0.24442246556282 
1878	 0.244236126542091 
1879	 0.244088500738144 
1880	 0.243955329060555 
1881	 0.243847727775574 
1882	 0.243731930851936 
1883	 0.243580877780914 
1884	 0.243535995483398 
1885	 0.243555873632431 
1886	 0.243565112352371 
1887	 0.243626430630684 
1888	 0.243647560477257 
1889	 0.243630468845367 
1890	 0.243564665317535 
1891	 0.243586182594299 
1892	 0.243598073720932 
1893	 0.243633538484573 
1894	 0.243615925312042 
1895	 0.243526324629784 
1896	 0.243528991937637 
1897	 0.243440553545952 
1898	 0.243310019373894 
1899	 0.243227705359459 
1900	 0.243182361125946 
1901	 0.243035465478897 
1902	 0.242940604686737 
1903	 0.242861539125443 
1904	 0.242714181542397 
1905	 0.242645621299744 
1906	 0.242596551775932 
1907	 0.242569208145142 
1908	 0.242559239268303 
1909	 0.242515742778778 
1910	 0.242498949170113 
1911	 0.242451265454292 
1912	 0.242471739649773 
1913	 0.242626950144768 
1914	 0.242773249745369 
1915	 0.242945536971092 
1916	 0.243106573820114 
1917	 0.243127256631851 
1918	 0.243225812911987 
1919	 0.243383273482323 
1920	 0.243450522422791 
1921	 0.243505164980888 
1922	 0.243560254573822 
1923	 0.243596419692039 
1924	 0.243524193763733 
1925	 0.243472278118134 
1926	 0.243548333644867 
1927	 0.243550330400467 
1928	 0.243467554450035 
1929	 0.243468105792999 
1930	 0.243401944637299 
1931	 0.243285313248634 
1932	 0.243292182683945 
1933	 0.243224173784256 
1934	 0.24315319955349 
1935	 0.243001192808151 
1936	 0.242808759212494 
1937	 0.242533788084984 
1938	 0.242311611771584 
1939	 0.242176398634911 
1940	 0.242036819458008 
1941	 0.241855502128601 
1942	 0.24156753718853 
1943	 0.241204530000687 
1944	 0.240905046463013 
1945	 0.240587189793587 
1946	 0.24030613899231 
1947	 0.240042001008987 
1948	 0.239869609475136 
1949	 0.239674225449562 
1950	 0.23945389688015 
1951	 0.239258781075478 
1952	 0.239043965935707 
1953	 0.238879129290581 
1954	 0.238790243864059 
1955	 0.238700032234192 
1956	 0.23861026763916 
1957	 0.238530665636063 
1958	 0.23840519785881 
1959	 0.238320633769035 
1960	 0.238272234797478 
1961	 0.238279208540916 
1962	 0.23822009563446 
1963	 0.238117501139641 
1964	 0.23798169195652 
1965	 0.237788110971451 
1966	 0.23757304251194 
1967	 0.237413242459297 
1968	 0.237223416566849 
1969	 0.237059459090233 
1970	 0.236813962459564 
1971	 0.236478045582771 
1972	 0.236199259757996 
1973	 0.235912024974823 
1974	 0.235647484660149 
1975	 0.235350996255875 
1976	 0.235038161277771 
1977	 0.234673157334328 
1978	 0.234355479478836 
1979	 0.234097823500633 
1980	 0.23385663330555 
1981	 0.2336196154356 
1982	 0.233377113938332 
1983	 0.233168333768845 
1984	 0.232942327857018 
1985	 0.232802540063858 
1986	 0.232730090618134 
1987	 0.232721000909805 
1988	 0.232605993747711 
1989	 0.232529625296593 
1990	 0.232514902949333 
1991	 0.232438638806343 
1992	 0.232411056756973 
1993	 0.232448309659958 
1994	 0.232480019330978 
1995	 0.232504412531853 
1996	 0.23249888420105 
1997	 0.232460960745811 
1998	 0.23252971470356 
1999	 0.232578188180923 
2000	 0.232705980539322 
2001	 0.232989147305489 
2002	 0.233309715986252 
2003	 0.233634114265442 
2004	 0.233989074826241 
2005	 0.234339863061905 
2006	 0.234730154275894 
2007	 0.235154867172241 
2008	 0.235568195581436 
2009	 0.236060619354248 
2010	 0.236644566059113 
2011	 0.237235307693481 
2012	 0.237875312566757 
2013	 0.238534599542618 
2014	 0.239153116941452 
2015	 0.239757016301155 
2016	 0.240419447422028 
2017	 0.2410938590765 
2018	 0.241846218705177 
2019	 0.242665782570839 
2020	 0.243450805544853 
2021	 0.244223773479462 
2022	 0.245038747787476 
2023	 0.245868816971779 
2024	 0.246705561876297 
2025	 0.247594878077507 
2026	 0.248442739248276 
2027	 0.24927631020546 
2028	 0.250119596719742 
2029	 0.250929802656174 
2030	 0.251751869916916 
2031	 0.252600878477097 
2032	 0.253390312194824 
2033	 0.254220962524414 
2034	 0.25509962439537 
2035	 0.255901724100113 
2036	 0.256705790758133 
2037	 0.25746214389801 
2038	 0.258136659860611 
2039	 0.258803576231003 
2040	 0.259469658136368 
2041	 0.260093837976456 
2042	 0.260637521743774 
2043	 0.261249095201492 
2044	 0.261875420808792 
2045	 0.262456119060516 
2046	 0.263036698102951 
2047	 0.263622492551804 
2048	 0.264147073030472 
2049	 0.264590054750443 
2050	 0.265080779790878 
2051	 0.265567898750305 
2052	 0.266035437583923 
2053	 0.266503751277924 
2054	 0.2669597864151 
2055	 0.267406284809113 
2056	 0.267837733030319 
2057	 0.268270790576935 
2058	 0.268663585186005 
2059	 0.269041180610657 
2060	 0.269378751516342 
2061	 0.269774228334427 
2062	 0.270224750041962 
2063	 0.270607680082321 
2064	 0.270904898643494 
2065	 0.271204948425293 
2066	 0.271416276693344 
2067	 0.271671205759048 
2068	 0.271975874900818 
2069	 0.272228598594666 
2070	 0.272371619939804 
2071	 0.272617369890213 
2072	 0.272891581058502 
2073	 0.273201882839203 
2074	 0.273523658514023 
2075	 0.273814141750336 
2076	 0.274018168449402 
2077	 0.274193555116653 
2078	 0.274349451065063 
2079	 0.274574667215347 
2080	 0.274837881326675 
2081	 0.275181919336319 
2082	 0.275402992963791 
2083	 0.275616973638535 
2084	 0.275819629430771 
2085	 0.275919765233994 
2086	 0.276105105876923 
2087	 0.276415348052979 
2088	 0.276581019163132 
2089	 0.27670755982399 
2090	 0.27675598859787 
2091	 0.276782035827637 
2092	 0.276826918125153 
2093	 0.276897937059402 
2094	 0.276899218559265 
2095	 0.276773422956467 
2096	 0.276709228754044 
2097	 0.276668041944504 
2098	 0.276637494564056 
2099	 0.276585966348648 
2100	 0.276601195335388 
2101	 0.276510268449783 
2102	 0.276284277439117 
2103	 0.276194602251053 
2104	 0.276164084672928 
2105	 0.276074051856995 
2106	 0.275994062423706 
2107	 0.275965392589569 
2108	 0.275857120752335 
2109	 0.27570366859436 
2110	 0.275601476430893 
2111	 0.27552992105484 
2112	 0.275501489639282 
2113	 0.275440841913223 
2114	 0.275345504283905 
2115	 0.275267332792282 
2116	 0.275145769119263 
2117	 0.274897307157516 
2118	 0.274795383214951 
2119	 0.274756878614426 
2120	 0.274727940559387 
2121	 0.274772882461548 
2122	 0.274787157773972 
2123	 0.274760961532593 
2124	 0.274812430143356 
2125	 0.274938970804214 
2126	 0.275019645690918 
2127	 0.275066405534744 
2128	 0.275177985429764 
2129	 0.27525195479393 
2130	 0.275383114814758 
2131	 0.275550484657288 
2132	 0.275637298822403 
2133	 0.275732338428497 
2134	 0.275766909122467 
2135	 0.275812238454819 
2136	 0.275879949331284 
2137	 0.275937587022781 
2138	 0.275996804237366 
2139	 0.275978982448578 
2140	 0.275900989770889 
2141	 0.275858730077744 
2142	 0.275801181793213 
2143	 0.275715321302414 
2144	 0.275675594806671 
2145	 0.275546044111252 
2146	 0.275414556264877 
2147	 0.275233089923859 
2148	 0.275045186281204 
2149	 0.274903059005737 
2150	 0.274617254734039 
2151	 0.27425342798233 
2152	 0.273984223604202 
2153	 0.27372345328331 
2154	 0.273445665836334 
2155	 0.273247092962265 
2156	 0.272965759038925 
2157	 0.272584915161133 
2158	 0.272257596254349 
2159	 0.271938860416412 
2160	 0.271622091531754 
2161	 0.271360069513321 
2162	 0.271008104085922 
2163	 0.270634323358536 
2164	 0.270195066928864 
2165	 0.269706696271896 
2166	 0.269289910793304 
2167	 0.268929868936539 
2168	 0.268543392419815 
2169	 0.268114656209946 
2170	 0.267677009105682 
2171	 0.267283737659454 
2172	 0.266823202371597 
2173	 0.266318500041962 
2174	 0.265744656324387 
2175	 0.265291094779968 
2176	 0.264837175607681 
2177	 0.26442152261734 
2178	 0.264215558767319 
2179	 0.263732433319092 
2180	 0.262994468212128 
2181	 0.262453138828278 
2182	 0.261944472789764 
2183	 0.261360585689545 
2184	 0.260863214731216 
2185	 0.260286182165146 
2186	 0.259547263383865 
2187	 0.258867055177689 
2188	 0.258263885974884 
2189	 0.257623374462128 
2190	 0.256943076848984 
2191	 0.256334841251373 
2192	 0.255667060613632 
2193	 0.254971504211426 
2194	 0.254342317581177 
2195	 0.253544867038727 
2196	 0.252831429243088 
2197	 0.252149850130081 
2198	 0.251489192247391 
2199	 0.250879615545273 
2200	 0.250178873538971 
2201	 0.24941922724247 
2202	 0.248720854520798 
2203	 0.247970536351204 
2204	 0.247300356626511 
2205	 0.246778324246407 
2206	 0.246114805340767 
2207	 0.245419308543205 
2208	 0.244716927409172 
2209	 0.244011431932449 
2210	 0.243174836039543 
2211	 0.242301851511002 
2212	 0.24132351577282 
2213	 0.24020154774189 
2214	 0.23915821313858 
2215	 0.238194569945335 
2216	 0.237174108624458 
2217	 0.236009865999222 
2218	 0.234891399741173 
2219	 0.23368576169014 
2220	 0.232153534889221 
2221	 0.230666801333427 
2222	 0.229076400399208 
2223	 0.227463364601135 
2224	 0.225861936807632 
2225	 0.224120184779167 
2226	 0.222329810261726 
2227	 0.220352679491043 
2228	 0.218215778470039 
2229	 0.215954452753067 
2230	 0.213519960641861 
2231	 0.211034446954727 
2232	 0.208512157201767 
2233	 0.205746859312057 
2234	 0.202825874090195 
2235	 0.199768111109734 
2236	 0.196453645825386 
2237	 0.193108350038528 
2238	 0.189663887023926 
2239	 0.186114519834518 
2240	 0.182597190141678 
2241	 0.179062604904175 
2242	 0.175535351037979 
2243	 0.172115668654442 
2244	 0.168624967336655 
2245	 0.165405377745628 
2246	 0.162666022777557 
2247	 0.160143136978149 
2248	 0.157975226640701 
2249	 0.156231969594955 
2250	 0.154721692204475 
2251	 0.153659701347351 
2252	 0.152944132685661 
2253	 0.152718499302864 
2254	 0.152663946151733 
2255	 0.152970194816589 
2256	 0.153421297669411 
2257	 0.154203236103058 
2258	 0.155097737908363 
2259	 0.156234815716743 
2260	 0.157306641340256 
2261	 0.15859280526638 
2262	 0.159733563661575 
2263	 0.160779252648354 
2264	 0.161889165639877 
2265	 0.163095787167549 
2266	 0.164142370223999 
2267	 0.165188431739807 
2268	 0.166114628314972 
2269	 0.16688035428524 
2270	 0.1675895601511 
2271	 0.168270841240883 
2272	 0.168783873319626 
2273	 0.169187366962433 
2274	 0.169518008828163 
2275	 0.169649481773376 
2276	 0.169692054390907 
2277	 0.16961470246315 
2278	 0.169365212321281 
2279	 0.169244304299355 
2280	 0.169002130627632 
2281	 0.168483734130859 
2282	 0.168011993169785 
2283	 0.167291089892387 
2284	 0.166339784860611 
2285	 0.165596649050713 
2286	 0.164846733212471 
2287	 0.163849130272865 
2288	 0.162807449698448 
2289	 0.161853477358818 
2290	 0.160874024033546 
2291	 0.159900411963463 
2292	 0.159035012125969 
2293	 0.158117592334747 
2294	 0.157036677002907 
2295	 0.156181320548058 
2296	 0.155469596385956 
2297	 0.154766604304314 
2298	 0.154173970222473 
2299	 0.153542548418045 
2300	 0.152919098734856 
2301	 0.15235747396946 
2302	 0.151790007948875 
2303	 0.151319071650505 
2304	 0.150941014289856 
2305	 0.150531366467476 
2306	 0.15020763874054 
2307	 0.149839669466019 
2308	 0.149441257119179 
2309	 0.149026364088058 
2310	 0.148621052503586 
2311	 0.148205071687698 
2312	 0.147737309336662 
2313	 0.147313088178635 
2314	 0.146927908062935 
2315	 0.146457716822624 
2316	 0.145852282643318 
2317	 0.145492881536484 
2318	 0.14526230096817 
2319	 0.145001396536827 
2320	 0.144603550434113 
2321	 0.143995672464371 
2322	 0.143310502171516 
2323	 0.142584830522537 
2324	 0.142005994915962 
2325	 0.14166159927845 
2326	 0.141148194670677 
2327	 0.14052352309227 
2328	 0.140139728784561 
2329	 0.139817506074905 
2330	 0.139408141374588 
2331	 0.139011800289154 
2332	 0.138474985957146 
2333	 0.1378583163023 
2334	 0.137415707111359 
2335	 0.137145981192589 
2336	 0.136968120932579 
2337	 0.136874496936798 
2338	 0.136900946497917 
2339	 0.136906772851944 
2340	 0.136893644928932 
2341	 0.13711804151535 
2342	 0.137520432472229 
2343	 0.137826502323151 
2344	 0.13804879784584 
2345	 0.138256698846817 
2346	 0.138440921902657 
2347	 0.138734996318817 
2348	 0.139325231313705 
2349	 0.140027284622192 
2350	 0.140595614910126 
2351	 0.141138851642609 
2352	 0.141700193285942 
2353	 0.14212529361248 
2354	 0.142764911055565 
2355	 0.143531262874603 
2356	 0.144275411963463 
2357	 0.145069569349289 
2358	 0.146005898714066 
2359	 0.147043451666832 
2360	 0.14805044233799 
2361	 0.149257108569145 
2362	 0.150263756513596 
2363	 0.151019096374512 
2364	 0.152032226324081 
2365	 0.153098911046982 
2366	 0.154224991798401 
2367	 0.155579000711441 
2368	 0.156735688447952 
2369	 0.157792910933495 
2370	 0.158940359950066 
2371	 0.160084769129753 
2372	 0.161244422197342 
2373	 0.162505388259888 
2374	 0.163571029901505 
2375	 0.164527297019958 
2376	 0.165445610880852 
2377	 0.166373744606972 
2378	 0.167072102427483 
2379	 0.167523965239525 
2380	 0.168141931295395 
2381	 0.168635442852974 
2382	 0.169193685054779 
2383	 0.169992491602898 
2384	 0.170524105429649 
2385	 0.170774519443512 
2386	 0.171267613768578 
2387	 0.17194040119648 
2388	 0.172222003340721 
2389	 0.17245888710022 
2390	 0.172569707036018 
2391	 0.172182589769363 
2392	 0.172172486782074 
2393	 0.172368854284286 
2394	 0.172462582588196 
2395	 0.172479286789894 
2396	 0.172732427716255 
2397	 0.173263847827911 
2398	 0.173480644822121 
2399	 0.17363628745079 
2400	 0.173886895179749 
2401	 0.173978880047798 
2402	 0.174131616950035 
2403	 0.174395084381104 
2404	 0.174776822328568 
2405	 0.17515429854393 
2406	 0.175416946411133 
2407	 0.175904884934425 
2408	 0.176188349723816 
2409	 0.176070556044579 
2410	 0.176290780305862 
2411	 0.176659718155861 
2412	 0.177129700779915 
2413	 0.177901685237885 
2414	 0.178309366106987 
2415	 0.178624033927917 
2416	 0.178840517997742 
2417	 0.178659871220589 
2418	 0.178923383355141 
2419	 0.179406881332397 
2420	 0.179762929677963 
2421	 0.180373728275299 
2422	 0.180726245045662 
2423	 0.180812001228333 
2424	 0.181070119142532 
2425	 0.181370630860329 
2426	 0.181535139679909 
2427	 0.181815400719643 
2428	 0.181790828704834 
2429	 0.181420519948006 
2430	 0.181156754493713 
2431	 0.1805409938097 
2432	 0.180640518665314 
2433	 0.181263938546181 
2434	 0.181507021188736 
2435	 0.182038694620132 
2436	 0.182269230484962 
2437	 0.182126954197884 
2438	 0.182085439562798 
2439	 0.182049378752708 
2440	 0.182062447071075 
2441	 0.182120829820633 
2442	 0.18172088265419 
2443	 0.181194469332695 
2444	 0.180755287408829 
2445	 0.179728031158447 
2446	 0.179565653204918 
2447	 0.180178552865982 
2448	 0.179971426725388 
2449	 0.179625928401947 
2450	 0.179436504840851 
2451	 0.178941339254379 
2452	 0.178670778870583 
2453	 0.178805604577065 
2454	 0.178295060992241 
2455	 0.177910953760147 
2456	 0.177056506276131 
2457	 0.176120787858963 
2458	 0.175658240914345 
2459	 0.175030633807182 
2460	 0.175001114606857 
2461	 0.174736097455025 
2462	 0.173823729157448 
2463	 0.173125132918358 
2464	 0.172770768404007 
2465	 0.172493606805801 
2466	 0.172821521759033 
2467	 0.172805681824684 
2468	 0.172478243708611 
2469	 0.172249749302864 
2470	 0.172107979655266 
2471	 0.171716466546059 
2472	 0.171195134520531 
2473	 0.170671314001083 
2474	 0.169833466410637 
2475	 0.169167593121529 
2476	 0.168513298034668 
2477	 0.16806024312973 
2478	 0.167722776532173 
2479	 0.167522937059402 
2480	 0.167751774191856 
2481	 0.167651191353798 
2482	 0.167285829782486 
2483	 0.167251035571098 
2484	 0.167393639683723 
2485	 0.167268916964531 
2486	 0.16742405295372 
2487	 0.167131558060646 
2488	 0.165807321667671 
2489	 0.165678977966309 
2490	 0.166237816214561 
2491	 0.166385263204575 
2492	 0.167373344302177 
2493	 0.167265474796295 
2494	 0.165688887238503 
2495	 0.165631264448166 
2496	 0.165991857647896 
2497	 0.166324242949486 
2498	 0.167940616607666 
2499	 0.167898505926132 
2500	 0.166734486818314 
