
Text conversion of header file \A_MEDIDAS\PROJETOS\BRASIL\BLOCO GAVIAO\JACOBINA\CANIF27\sco\CANIF27_026.10_00002.asd.ref
 -------------------------------------------------------------
                                                                                                                                                            
The instrument number was  16586/1
New ASD spectrum file: Program version = 6.00 file version = 1.00
Spectrum saved: 10/16/2018 at 10:11:22
VNIR integration time : 34
VNIR channel 1 wavelength = 350 wavelength step = 1
There were 50 samples per data value
xmin = 350 xmax= 2500
ymin= 0 ymax= 1.25
The instrument digitizes spectral values to 16 bits
SWIR1 gain was 214 offset was 2097
SWIR2 gain was 513 offset was 2267
Join between VNIR and SWIR1 was 1000 nm
Join between SWIR1 and SWIR2 was 1830 nm
Absolute Reflectance is Enabled
The Absolute Reflectance File is abs165861.ref
VNIR dark signal subtracted
50 dark measurements taken Tue Oct 16 09:52:54 2018
DCC value was 0
Data is compared to a white reference:
60 white reference measurements taken Tue Oct 16 09:53:02 2018
There was no foreoptic attached
Spectrum file is reflectance data
GPS-Latitude is S0
GPS-Longitude is E0
GPS-Altitude is 0
GPS-UTC is Wed Dec 31 17:00:00 1969

Smart Detector
Serial#  0
Signal (A)  0.000E00
Dark (A)  0.000E00
Ref (A)  0.000E00
Status  0 - Uninitialized
Gain  E-4
Averaging  0
Temp (C)  0.0
Humid (%)  0.0

Reflectance Absolute
Wavelength	CANIF27_26.10_00002.asd.ref
350	 0.253707438707352 
351	 0.258940428495407 
352	 0.259834766387939 
353	 0.259227395057678 
354	 0.259992301464081 
355	 0.256547033786774 
356	 0.265609890222549 
357	 0.275857031345367 
358	 0.272705554962158 
359	 0.265120446681976 
360	 0.265924036502838 
361	 0.272000104188919 
362	 0.270921230316162 
363	 0.265825182199478 
364	 0.265643566846848 
365	 0.271223574876785 
366	 0.271840065717697 
367	 0.273362040519714 
368	 0.275752484798431 
369	 0.277571588754654 
370	 0.277126222848892 
371	 0.278031438589096 
372	 0.278710126876831 
373	 0.276433169841766 
374	 0.277336448431015 
375	 0.279803484678268 
376	 0.281666606664658 
377	 0.28115251660347 
378	 0.281111806631088 
379	 0.281732559204102 
380	 0.28234937787056 
381	 0.281258553266525 
382	 0.283077508211136 
383	 0.285221666097641 
384	 0.28411078453064 
385	 0.286132752895355 
386	 0.287981122732162 
387	 0.28924298286438 
388	 0.292226850986481 
389	 0.292725563049316 
390	 0.292330116033554 
391	 0.292738884687424 
392	 0.293923586606979 
393	 0.295067846775055 
394	 0.295860975980759 
395	 0.296172887086868 
396	 0.295574933290482 
397	 0.296026736497879 
398	 0.297478288412094 
399	 0.298311322927475 
400	 0.298630058765411 
401	 0.298795193433762 
402	 0.299215137958527 
403	 0.300375044345856 
404	 0.300110936164856 
405	 0.300111472606659 
406	 0.301874369382858 
407	 0.301350593566895 
408	 0.301331222057343 
409	 0.302074462175369 
410	 0.302096307277679 
411	 0.302255243062973 
412	 0.301600307226181 
413	 0.300509631633759 
414	 0.301791220903397 
415	 0.301631063222885 
416	 0.301092803478241 
417	 0.301689743995667 
418	 0.301435142755508 
419	 0.301274836063385 
420	 0.301427334547043 
421	 0.301568984985352 
422	 0.301173746585846 
423	 0.300895988941193 
424	 0.300934433937073 
425	 0.300580233335495 
426	 0.301101833581924 
427	 0.301370084285736 
428	 0.30051651597023 
429	 0.300852417945862 
430	 0.300733327865601 
431	 0.300412893295288 
432	 0.30107718706131 
433	 0.300453275442123 
434	 0.300204753875732 
435	 0.301087945699692 
436	 0.301906406879425 
437	 0.301823407411575 
438	 0.301831305027008 
439	 0.302778482437134 
440	 0.302998453378677 
441	 0.303480565547943 
442	 0.304165989160538 
443	 0.304382115602493 
444	 0.304929673671722 
445	 0.305573105812073 
446	 0.306160092353821 
447	 0.306904315948486 
448	 0.307413995265961 
449	 0.307828783988953 
450	 0.308343261480331 
451	 0.308657109737396 
452	 0.309248924255371 
453	 0.309976905584335 
454	 0.310302913188934 
455	 0.311032444238663 
456	 0.311444580554962 
457	 0.311375349760056 
458	 0.312130600214005 
459	 0.31275349855423 
460	 0.313221216201782 
461	 0.313760638237 
462	 0.31428137421608 
463	 0.314776062965393 
464	 0.315225660800934 
465	 0.315598845481873 
466	 0.315914988517761 
467	 0.316226601600647 
468	 0.316595375537872 
469	 0.31712207198143 
470	 0.317521929740906 
471	 0.317893743515015 
472	 0.318431347608566 
473	 0.318889319896698 
474	 0.319303601980209 
475	 0.319758743047714 
476	 0.320358723402023 
477	 0.320850342512131 
478	 0.321395069360733 
479	 0.322091400623322 
480	 0.322614848613739 
481	 0.323145478963852 
482	 0.323746502399445 
483	 0.32442182302475 
484	 0.325205951929092 
485	 0.325894176959991 
486	 0.326432704925537 
487	 0.326992005109787 
488	 0.327673763036728 
489	 0.328336358070374 
490	 0.328859597444534 
491	 0.32943069934845 
492	 0.330023288726807 
493	 0.330547451972961 
494	 0.330909758806229 
495	 0.331398159265518 
496	 0.331897407770157 
497	 0.332322835922241 
498	 0.332730889320374 
499	 0.333093464374542 
500	 0.33343032002449 
501	 0.333773553371429 
502	 0.334141373634338 
503	 0.334516197443008 
504	 0.334837794303894 
505	 0.335028380155563 
506	 0.33522242307663 
507	 0.335491538047791 
508	 0.335806131362915 
509	 0.335932046175003 
510	 0.336214929819107 
511	 0.336514413356781 
512	 0.336594700813293 
513	 0.336759328842163 
514	 0.336980104446411 
515	 0.337188363075256 
516	 0.337300717830658 
517	 0.337387561798096 
518	 0.337444871664047 
519	 0.337469756603241 
520	 0.33749532699585 
521	 0.337571233510971 
522	 0.337585151195526 
523	 0.337401390075684 
524	 0.33729499578476 
525	 0.337325006723404 
526	 0.337403804063797 
527	 0.337292581796646 
528	 0.3370700776577 
529	 0.336873441934586 
530	 0.336773931980133 
531	 0.336562633514404 
532	 0.336387187242508 
533	 0.336211055517197 
534	 0.335908085107803 
535	 0.335727483034134 
536	 0.335539251565933 
537	 0.335245609283447 
538	 0.33487942814827 
539	 0.334553509950638 
540	 0.334245383739471 
541	 0.333909630775452 
542	 0.333619624376297 
543	 0.333322077989578 
544	 0.333023428916931 
545	 0.332768589258194 
546	 0.332316428422928 
547	 0.331857055425644 
548	 0.331502974033356 
549	 0.331032752990723 
550	 0.330543786287308 
551	 0.330076932907104 
552	 0.329634249210358 
553	 0.329118490219116 
554	 0.328562498092651 
555	 0.32797908782959 
556	 0.327350437641144 
557	 0.326761782169342 
558	 0.326277643442154 
559	 0.325892716646194 
560	 0.32543808221817 
561	 0.325015693902969 
562	 0.324514508247375 
563	 0.323792546987534 
564	 0.323354005813599 
565	 0.32294887304306 
566	 0.322440415620804 
567	 0.321965336799622 
568	 0.321423679590225 
569	 0.320787519216537 
570	 0.320036202669144 
571	 0.319042414426804 
572	 0.318274110555649 
573	 0.317782074213028 
574	 0.317319244146347 
575	 0.316957890987396 
576	 0.31667497754097 
577	 0.316401541233063 
578	 0.315994679927826 
579	 0.315588533878326 
580	 0.315168976783752 
581	 0.314664959907532 
582	 0.313963770866394 
583	 0.313318729400635 
584	 0.312767028808594 
585	 0.312143325805664 
586	 0.311500757932663 
587	 0.310952395200729 
588	 0.310603886842728 
589	 0.310554504394531 
590	 0.310462594032288 
591	 0.310265362262726 
592	 0.30999767780304 
593	 0.309507787227631 
594	 0.309003233909607 
595	 0.308625817298889 
596	 0.308400422334671 
597	 0.307853758335114 
598	 0.307196766138077 
599	 0.306648582220078 
600	 0.306022644042969 
601	 0.305360168218613 
602	 0.3047214448452 
603	 0.304169207811356 
604	 0.303712755441666 
605	 0.303393632173538 
606	 0.303211659193039 
607	 0.303110778331757 
608	 0.30292409658432 
609	 0.302693039178848 
610	 0.302491426467896 
611	 0.302303850650787 
612	 0.302070111036301 
613	 0.301786720752716 
614	 0.301495760679245 
615	 0.301275700330734 
616	 0.301161706447601 
617	 0.301109462976456 
618	 0.300966292619705 
619	 0.300825029611588 
620	 0.300727665424347 
621	 0.300699889659882 
622	 0.300756454467773 
623	 0.300848215818405 
624	 0.300919592380524 
625	 0.30093377828598 
626	 0.301071465015411 
627	 0.301304310560226 
628	 0.30158343911171 
629	 0.301883816719055 
630	 0.302114188671112 
631	 0.302353471517563 
632	 0.302704513072968 
633	 0.303112030029297 
634	 0.303517192602158 
635	 0.30389991402626 
636	 0.304283767938614 
637	 0.304799765348434 
638	 0.305344879627228 
639	 0.305818408727646 
640	 0.306194454431534 
641	 0.306585788726807 
642	 0.307004064321518 
643	 0.307384818792343 
644	 0.307492911815643 
645	 0.307671099901199 
646	 0.30799725651741 
647	 0.308319956064224 
648	 0.308743864297867 
649	 0.309291332960129 
650	 0.30993378162384 
651	 0.310575872659683 
652	 0.311230570077896 
653	 0.311895817518234 
654	 0.312555521726608 
655	 0.313117563724518 
656	 0.313748806715012 
657	 0.314464688301086 
658	 0.315163642168045 
659	 0.316000312566757 
660	 0.316925019025803 
661	 0.317859977483749 
662	 0.318733364343643 
663	 0.31963586807251 
664	 0.32057312130928 
665	 0.321528941392899 
666	 0.322536081075668 
667	 0.323505997657776 
668	 0.324430406093597 
669	 0.325371772050858 
670	 0.326415032148361 
671	 0.32743239402771 
672	 0.328377574682236 
673	 0.329399079084396 
674	 0.330358505249023 
675	 0.331225007772446 
676	 0.331976175308228 
677	 0.332498162984848 
678	 0.332824140787125 
679	 0.333101570606232 
680	 0.333510845899582 
681	 0.333840757608414 
682	 0.3340665102005 
683	 0.334198355674744 
684	 0.334254086017609 
685	 0.334743052721024 
686	 0.335553914308548 
687	 0.336432874202728 
688	 0.337288022041321 
689	 0.33828017115593 
690	 0.339265495538712 
691	 0.339996665716171 
692	 0.340753883123398 
693	 0.341508030891418 
694	 0.34230375289917 
695	 0.343299478292465 
696	 0.34450027346611 
697	 0.345792055130005 
698	 0.347067713737488 
699	 0.348308712244034 
700	 0.349553793668747 
701	 0.35084855556488 
702	 0.352207452058792 
703	 0.353473156690598 
704	 0.354654490947723 
705	 0.355807185173035 
706	 0.35700649023056 
707	 0.358173727989197 
708	 0.359290719032288 
709	 0.360383689403534 
710	 0.361540496349335 
711	 0.36273717880249 
712	 0.363824337720871 
713	 0.364720106124878 
714	 0.36573201417923 
715	 0.366755396127701 
716	 0.367748618125916 
717	 0.368720650672913 
718	 0.36970666050911 
719	 0.370688259601593 
720	 0.371640086174011 
721	 0.372538506984711 
722	 0.373458534479141 
723	 0.374490559101105 
724	 0.375585287809372 
725	 0.376339942216873 
726	 0.377072811126709 
727	 0.377886414527893 
728	 0.378777116537094 
729	 0.379675388336182 
730	 0.380496472120285 
731	 0.381190419197083 
732	 0.381758362054825 
733	 0.382357567548752 
734	 0.383079677820206 
735	 0.383882254362106 
736	 0.384549856185913 
737	 0.385297238826752 
738	 0.386029064655304 
739	 0.3866166472435 
740	 0.387033879756927 
741	 0.387651264667511 
742	 0.388349056243896 
743	 0.388860374689102 
744	 0.389444500207901 
745	 0.39004573225975 
746	 0.390623539686203 
747	 0.391167849302292 
748	 0.39168444275856 
749	 0.39213702082634 
750	 0.392601758241653 
751	 0.393326967954636 
752	 0.39391103386879 
753	 0.394465625286102 
754	 0.395071595907211 
755	 0.39530810713768 
756	 0.395731925964355 
757	 0.396330982446671 
758	 0.396848499774933 
759	 0.397139728069305 
760	 0.397576987743378 
761	 0.398124694824219 
762	 0.398457944393158 
763	 0.39882954955101 
764	 0.399218440055847 
765	 0.399615108966827 
766	 0.400061815977097 
767	 0.400304555892944 
768	 0.400555521249771 
769	 0.400961965322495 
770	 0.401278913021088 
771	 0.401751846075058 
772	 0.402157753705978 
773	 0.402275502681732 
774	 0.40248829126358 
775	 0.402802616357803 
776	 0.403111904859543 
777	 0.403292089700699 
778	 0.403529584407806 
779	 0.403854817152023 
780	 0.404163479804993 
781	 0.404272645711899 
782	 0.404437988996506 
783	 0.404671937227249 
784	 0.404933363199234 
785	 0.405163526535034 
786	 0.405263245105743 
787	 0.405315816402435 
788	 0.405433565378189 
789	 0.405703395605087 
790	 0.405786156654358 
791	 0.405741214752197 
792	 0.405768632888794 
793	 0.405997574329376 
794	 0.406360983848572 
795	 0.406623840332031 
796	 0.406571567058563 
797	 0.406579494476318 
798	 0.40664991736412 
799	 0.406780302524567 
800	 0.406976103782654 
801	 0.407214760780334 
802	 0.407371312379837 
803	 0.407429873943329 
804	 0.40751776099205 
805	 0.407705366611481 
806	 0.407821625471115 
807	 0.407850176095963 
808	 0.408126175403595 
809	 0.408299028873444 
810	 0.408378303050995 
811	 0.408470094203949 
812	 0.408676773309708 
813	 0.408822447061539 
814	 0.408887922763824 
815	 0.408934414386749 
816	 0.409091711044312 
817	 0.409140527248383 
818	 0.409212976694107 
819	 0.40950870513916 
820	 0.409604877233505 
821	 0.409663528203964 
822	 0.409744620323181 
823	 0.409826099872589 
824	 0.410006374120712 
825	 0.410178542137146 
826	 0.410225629806519 
827	 0.410081773996353 
828	 0.410021126270294 
829	 0.410148024559021 
830	 0.410380065441132 
831	 0.410463720560074 
832	 0.410555213689804 
833	 0.410703480243683 
834	 0.410835385322571 
835	 0.410728454589844 
836	 0.41074126958847 
837	 0.410837978124619 
838	 0.410937309265137 
839	 0.411072134971619 
840	 0.411228805780411 
841	 0.41134849190712 
842	 0.411392748355865 
843	 0.411400705575943 
844	 0.411445558071136 
845	 0.411504507064819 
846	 0.411550968885422 
847	 0.411673456430435 
848	 0.411766439676285 
849	 0.411883264780045 
850	 0.412062525749207 
851	 0.412022292613983 
852	 0.411902189254761 
853	 0.411916136741638 
854	 0.412195205688477 
855	 0.41239532828331 
856	 0.412496328353882 
857	 0.412575244903564 
858	 0.412700444459915 
859	 0.412581086158752 
860	 0.412603318691254 
861	 0.412763088941574 
862	 0.412814378738403 
863	 0.412934452295303 
864	 0.413038313388824 
865	 0.413139313459396 
866	 0.413301348686218 
867	 0.413306146860123 
868	 0.413340479135513 
869	 0.413490653038025 
870	 0.413694381713867 
871	 0.4137002825737 
872	 0.413833945989609 
873	 0.414080500602722 
874	 0.414128720760345 
875	 0.414327532052994 
876	 0.414419233798981 
877	 0.414414703845978 
878	 0.41460183262825 
879	 0.414842277765274 
880	 0.415010452270508 
881	 0.415089458227158 
882	 0.415178328752518 
883	 0.415407598018646 
884	 0.415561020374298 
885	 0.415648519992828 
886	 0.415898382663727 
887	 0.415988981723785 
888	 0.41614305973053 
889	 0.416365891695023 
890	 0.41642239689827 
891	 0.416515082120895 
892	 0.416630864143372 
893	 0.416787385940552 
894	 0.417028874158859 
895	 0.417172491550446 
896	 0.417376518249512 
897	 0.41760528087616 
898	 0.417653679847717 
899	 0.417708277702332 
900	 0.417813092470169 
901	 0.417911112308502 
902	 0.4179427921772 
903	 0.418381810188293 
904	 0.418739050626755 
905	 0.418875724077225 
906	 0.418996870517731 
907	 0.419085204601288 
908	 0.419118940830231 
909	 0.419138967990875 
910	 0.419225424528122 
911	 0.419412851333618 
912	 0.419682949781418 
913	 0.419864296913147 
914	 0.419845461845398 
915	 0.420202702283859 
916	 0.420549362897873 
917	 0.420740306377411 
918	 0.420831114053726 
919	 0.420996308326721 
920	 0.421071857213974 
921	 0.421194285154343 
922	 0.421520292758942 
923	 0.421803534030914 
924	 0.422084510326386 
925	 0.422359377145767 
926	 0.422579705715179 
927	 0.422603756189346 
928	 0.422779589891434 
929	 0.423072963953018 
930	 0.423349738121033 
931	 0.423549026250839 
932	 0.423670887947083 
933	 0.423795223236084 
934	 0.423997700214386 
935	 0.42429918050766 
936	 0.424604415893555 
937	 0.424870103597641 
938	 0.42506331205368 
939	 0.425160795450211 
940	 0.425217479467392 
941	 0.42529308795929 
942	 0.425392627716064 
943	 0.425486505031586 
944	 0.425693154335022 
945	 0.425831198692322 
946	 0.425830155611038 
947	 0.42570897936821 
948	 0.425386130809784 
949	 0.425109028816223 
950	 0.424889177083969 
951	 0.424601703882217 
952	 0.424127787351608 
953	 0.423694342374802 
954	 0.423214286565781 
955	 0.422619938850403 
956	 0.422126919031143 
957	 0.421719968318939 
958	 0.42132294178009 
959	 0.420943528413773 
960	 0.420737028121948 
961	 0.420807272195816 
962	 0.420934647321701 
963	 0.42106631398201 
964	 0.421381622552872 
965	 0.422040343284607 
966	 0.422813087701797 
967	 0.423583894968033 
968	 0.424377530813217 
969	 0.425324469804764 
970	 0.426334142684937 
971	 0.427201598882675 
972	 0.427877813577652 
973	 0.428792417049408 
974	 0.429467886686325 
975	 0.430011093616486 
976	 0.43059042096138 
977	 0.431191176176071 
978	 0.431591331958771 
979	 0.431981354951859 
980	 0.432389348745346 
981	 0.432685524225235 
982	 0.433146178722382 
983	 0.433434069156647 
984	 0.433590263128281 
985	 0.43379670381546 
986	 0.433871328830719 
987	 0.433923453092575 
988	 0.434098601341248 
989	 0.434417933225632 
990	 0.434680491685867 
991	 0.435012519359589 
992	 0.43517854809761 
993	 0.435209333896637 
994	 0.435389459133148 
995	 0.435468345880508 
996	 0.435598224401474 
997	 0.435749471187592 
998	 0.435827076435089 
999	 0.43591696023941 
1000	 0.435995012521744 
1001	 0.419990420341492 
1002	 0.420124292373657 
1003	 0.420278251171112 
1004	 0.420446664094925 
1005	 0.420423001050949 
1006	 0.420396327972412 
1007	 0.420529544353485 
1008	 0.420712202787399 
1009	 0.420865625143051 
1010	 0.421198457479477 
1011	 0.421321034431458 
1012	 0.421248584985733 
1013	 0.421297132968903 
1014	 0.421341896057129 
1015	 0.421421229839325 
1016	 0.421587914228439 
1017	 0.421685069799423 
1018	 0.421657532453537 
1019	 0.42160975933075 
1020	 0.421527892351151 
1021	 0.421465307474136 
1022	 0.421552181243896 
1023	 0.421701163053513 
1024	 0.421801656484604 
1025	 0.421962827444077 
1026	 0.422027617692947 
1027	 0.42198184132576 
1028	 0.422011345624924 
1029	 0.422022730112076 
1030	 0.422087967395782 
1031	 0.422197103500366 
1032	 0.422321707010269 
1033	 0.422334671020508 
1034	 0.422251969575882 
1035	 0.422196179628372 
1036	 0.422163635492325 
1037	 0.422167778015137 
1038	 0.422159969806671 
1039	 0.422184556722641 
1040	 0.42222797870636 
1041	 0.422222822904587 
1042	 0.422264844179153 
1043	 0.42227229475975 
1044	 0.422224789857864 
1045	 0.422149419784546 
1046	 0.422117918729782 
1047	 0.422010570764542 
1048	 0.421919405460358 
1049	 0.421814799308777 
1050	 0.421809703111649 
1051	 0.421847701072693 
1052	 0.421882510185242 
1053	 0.422028452157974 
1054	 0.422060012817383 
1055	 0.422007501125336 
1056	 0.421981334686279 
1057	 0.421962022781372 
1058	 0.421848773956299 
1059	 0.421732783317566 
1060	 0.421677976846695 
1061	 0.42160302400589 
1062	 0.42155721783638 
1063	 0.421499371528625 
1064	 0.421456426382065 
1065	 0.421355128288269 
1066	 0.421247690916061 
1067	 0.42124143242836 
1068	 0.421224385499954 
1069	 0.42120024561882 
1070	 0.421242535114288 
1071	 0.421183288097382 
1072	 0.421062111854553 
1073	 0.420922040939331 
1074	 0.420787423849106 
1075	 0.420701384544373 
1076	 0.420662224292755 
1077	 0.420676678419113 
1078	 0.420705318450928 
1079	 0.420691192150116 
1080	 0.420628041028976 
1081	 0.420515775680542 
1082	 0.420423656702042 
1083	 0.420383751392365 
1084	 0.420373886823654 
1085	 0.420417755842209 
1086	 0.420413136482239 
1087	 0.420395970344543 
1088	 0.42036098241806 
1089	 0.420338958501816 
1090	 0.420254021883011 
1091	 0.420196294784546 
1092	 0.420139461755753 
1093	 0.420081228017807 
1094	 0.42011746764183 
1095	 0.420212805271149 
1096	 0.420289725065231 
1097	 0.420300722122192 
1098	 0.42029669880867 
1099	 0.420337170362473 
1100	 0.420346289873123 
1101	 0.420337468385696 
1102	 0.420355647802353 
1103	 0.420319020748138 
1104	 0.420176953077316 
1105	 0.420120149850845 
1106	 0.420059114694595 
1107	 0.419956803321838 
1108	 0.419962704181671 
1109	 0.419962048530579 
1110	 0.41992512345314 
1111	 0.419945865869522 
1112	 0.419969171285629 
1113	 0.419974625110626 
1114	 0.41999226808548 
1115	 0.420026451349258 
1116	 0.420053839683533 
1117	 0.420083314180374 
1118	 0.420101970434189 
1119	 0.420131623744965 
1120	 0.420137494802475 
1121	 0.42015528678894 
1122	 0.420197784900665 
1123	 0.420165330171585 
1124	 0.420096039772034 
1125	 0.420076668262482 
1126	 0.420046746730804 
1127	 0.420042484998703 
1128	 0.420122981071472 
1129	 0.420162171125412 
1130	 0.42010161280632 
1131	 0.420007288455963 
1132	 0.419933557510376 
1133	 0.419876039028168 
1134	 0.419809341430664 
1135	 0.419746518135071 
1136	 0.419720202684402 
1137	 0.419709205627441 
1138	 0.419653177261353 
1139	 0.419608771800995 
1140	 0.419578552246094 
1141	 0.419501394033432 
1142	 0.419426649808884 
1143	 0.419367909431458 
1144	 0.419312953948975 
1145	 0.419270247220993 
1146	 0.419250518083572 
1147	 0.419206708669662 
1148	 0.41910707950592 
1149	 0.419048339128494 
1150	 0.418977290391922 
1151	 0.41890749335289 
1152	 0.418835878372192 
1153	 0.418858617544174 
1154	 0.418832540512085 
1155	 0.418773889541626 
1156	 0.418740570545197 
1157	 0.41867271065712 
1158	 0.418579190969467 
1159	 0.418502867221832 
1160	 0.418460816144943 
1161	 0.418440133333206 
1162	 0.418408215045929 
1163	 0.418376326560974 
1164	 0.418401598930359 
1165	 0.418421745300293 
1166	 0.418401926755905 
1167	 0.418404251337051 
1168	 0.418348461389542 
1169	 0.418223023414612 
1170	 0.418108075857162 
1171	 0.418022304773331 
1172	 0.417999505996704 
1173	 0.418064832687378 
1174	 0.418106883764267 
1175	 0.418132990598679 
1176	 0.418154925107956 
1177	 0.418115377426147 
1178	 0.418035209178925 
1179	 0.417969584465027 
1180	 0.41793018579483 
1181	 0.417882472276688 
1182	 0.417847990989685 
1183	 0.417825698852539 
1184	 0.417809069156647 
1185	 0.417791306972504 
1186	 0.417798280715942 
1187	 0.417785406112671 
1188	 0.417759716510773 
1189	 0.417767316102982 
1190	 0.417718827724457 
1191	 0.417666852474213 
1192	 0.417638778686523 
1193	 0.417593389749527 
1194	 0.41759181022644 
1195	 0.417553693056107 
1196	 0.417465209960938 
1197	 0.417382180690765 
1198	 0.417344033718109 
1199	 0.417348951101303 
1200	 0.417344033718109 
1201	 0.417317152023315 
1202	 0.417261451482773 
1203	 0.417126178741455 
1204	 0.417033195495605 
1205	 0.416927397251129 
1206	 0.416863620281219 
1207	 0.416821241378784 
1208	 0.416794955730438 
1209	 0.416761487722397 
1210	 0.416741520166397 
1211	 0.416693180799484 
1212	 0.416552662849426 
1213	 0.41638907790184 
1214	 0.41625052690506 
1215	 0.416116237640381 
1216	 0.416004210710526 
1217	 0.415892660617828 
1218	 0.415758162736893 
1219	 0.415639311075211 
1220	 0.415493905544281 
1221	 0.415382117033005 
1222	 0.415314435958862 
1223	 0.415224462747574 
1224	 0.415114104747772 
1225	 0.415022909641266 
1226	 0.414943784475327 
1227	 0.41487330198288 
1228	 0.414754956960678 
1229	 0.414637684822083 
1230	 0.41450172662735 
1231	 0.414331078529358 
1232	 0.414180308580399 
1233	 0.414063274860382 
1234	 0.41394430398941 
1235	 0.413803696632385 
1236	 0.413688629865646 
1237	 0.413555026054382 
1238	 0.413384556770325 
1239	 0.413188308477402 
1240	 0.412984162569046 
1241	 0.412742465734482 
1242	 0.412507683038712 
1243	 0.4122554063797 
1244	 0.412024945020676 
1245	 0.411786526441574 
1246	 0.411575138568878 
1247	 0.411377042531967 
1248	 0.411197364330292 
1249	 0.41106504201889 
1250	 0.41097292304039 
1251	 0.410942107439041 
1252	 0.410952389240265 
1253	 0.410981386899948 
1254	 0.411025643348694 
1255	 0.411080151796341 
1256	 0.411126136779785 
1257	 0.411153227090836 
1258	 0.411198437213898 
1259	 0.411246508359909 
1260	 0.411308497190475 
1261	 0.411342829465866 
1262	 0.411378532648087 
1263	 0.411396712064743 
1264	 0.411413699388504 
1265	 0.411373376846313 
1266	 0.411301046609879 
1267	 0.411212533712387 
1268	 0.411034911870956 
1269	 0.410921573638916 
1270	 0.410829424858093 
1271	 0.410770416259766 
1272	 0.410686194896698 
1273	 0.410600811243057 
1274	 0.410487323999405 
1275	 0.410325169563293 
1276	 0.410158157348633 
1277	 0.40995118021965 
1278	 0.409739643335342 
1279	 0.409557938575745 
1280	 0.409336090087891 
1281	 0.409116297960281 
1282	 0.408860236406326 
1283	 0.408561825752258 
1284	 0.40826079249382 
1285	 0.407950043678284 
1286	 0.407606780529022 
1287	 0.407227396965027 
1288	 0.406855314970016 
1289	 0.406445264816284 
1290	 0.406082361936569 
1291	 0.405751585960388 
1292	 0.405407041311264 
1293	 0.405064314603806 
1294	 0.404665559530258 
1295	 0.404238522052765 
1296	 0.403856307268143 
1297	 0.403509825468063 
1298	 0.403160691261292 
1299	 0.402809888124466 
1300	 0.402472048997879 
1301	 0.402167081832886 
1302	 0.401908904314041 
1303	 0.401645004749298 
1304	 0.401454627513886 
1305	 0.401178896427155 
1306	 0.400844752788544 
1307	 0.400545060634613 
1308	 0.400210648775101 
1309	 0.399930506944656 
1310	 0.399689525365829 
1311	 0.399448454380035 
1312	 0.399257361888886 
1313	 0.399026274681091 
1314	 0.398727595806122 
1315	 0.398521661758423 
1316	 0.398334324359894 
1317	 0.398192405700684 
1318	 0.398118525743485 
1319	 0.398056864738464 
1320	 0.397991120815277 
1321	 0.397930294275284 
1322	 0.397854179143906 
1323	 0.397821426391602 
1324	 0.397778332233429 
1325	 0.397666543722153 
1326	 0.397627294063568 
1327	 0.397609114646912 
1328	 0.397624343633652 
1329	 0.397682785987854 
1330	 0.397751778364182 
1331	 0.397842824459076 
1332	 0.39792588353157 
1333	 0.398019075393677 
1334	 0.398129940032959 
1335	 0.398235738277435 
1336	 0.398384362459183 
1337	 0.398588865995407 
1338	 0.398738771677017 
1339	 0.398925602436066 
1340	 0.399040699005127 
1341	 0.399070650339127 
1342	 0.399127095937729 
1343	 0.399242222309113 
1344	 0.399330735206604 
1345	 0.399445593357086 
1346	 0.399596959352493 
1347	 0.399647176265717 
1348	 0.399644613265991 
1349	 0.399708986282349 
1350	 0.399723678827286 
1351	 0.399678349494934 
1352	 0.399628788232803 
1353	 0.399515092372894 
1354	 0.399315237998962 
1355	 0.399103820323944 
1356	 0.398879021406174 
1357	 0.398594498634338 
1358	 0.398261338472366 
1359	 0.397899299860001 
1360	 0.397510349750519 
1361	 0.397073864936829 
1362	 0.39660969376564 
1363	 0.396083503961563 
1364	 0.395501703023911 
1365	 0.394890815019608 
1366	 0.394219994544983 
1367	 0.393548518419266 
1368	 0.392848521471024 
1369	 0.392150282859802 
1370	 0.391463577747345 
1371	 0.390771061182022 
1372	 0.390066593885422 
1373	 0.389357835054398 
1374	 0.388664126396179 
1375	 0.387953162193298 
1376	 0.387308150529861 
1377	 0.386661618947983 
1378	 0.385991096496582 
1379	 0.385253727436066 
1380	 0.384293973445892 
1381	 0.38331401348114 
1382	 0.381875932216644 
1383	 0.380339920520782 
1384	 0.37813264131546 
1385	 0.375719487667084 
1386	 0.372403830289841 
1387	 0.368680894374847 
1388	 0.363923996686935 
1389	 0.35841029882431 
1390	 0.352040231227875 
1391	 0.34471270442009 
1392	 0.336763292551041 
1393	 0.327649056911469 
1394	 0.318593621253967 
1395	 0.308549106121063 
1396	 0.299110531806946 
1397	 0.289241015911102 
1398	 0.280374228954315 
1399	 0.271907150745392 
1400	 0.26414281129837 
1401	 0.257262647151947 
1402	 0.251246213912964 
1403	 0.246010184288025 
1404	 0.241486728191376 
1405	 0.237669736146927 
1406	 0.234407246112823 
1407	 0.231660544872284 
1408	 0.229444801807404 
1409	 0.227754816412926 
1410	 0.226784333586693 
1411	 0.226792797446251 
1412	 0.227360308170319 
1413	 0.229343727231026 
1414	 0.232362195849419 
1415	 0.236545294523239 
1416	 0.242000132799149 
1417	 0.248273327946663 
1418	 0.255929678678513 
1419	 0.263660252094269 
1420	 0.27250012755394 
1421	 0.280936747789383 
1422	 0.289922624826431 
1423	 0.298217684030533 
1424	 0.306535214185715 
1425	 0.314151614904404 
1426	 0.321375012397766 
1427	 0.327924937009811 
1428	 0.333908528089523 
1429	 0.339397430419922 
1430	 0.344227343797684 
1431	 0.348667860031128 
1432	 0.352603942155838 
1433	 0.356180459260941 
1434	 0.359275460243225 
1435	 0.362017214298248 
1436	 0.36449533700943 
1437	 0.366694808006287 
1438	 0.368629664182663 
1439	 0.370309770107269 
1440	 0.371725797653198 
1441	 0.372929483652115 
1442	 0.373989790678024 
1443	 0.374898552894592 
1444	 0.375658631324768 
1445	 0.376295864582062 
1446	 0.376869231462479 
1447	 0.377290904521942 
1448	 0.377718567848206 
1449	 0.378105312585831 
1450	 0.378426223993301 
1451	 0.378668397665024 
1452	 0.378903955221176 
1453	 0.379097074270248 
1454	 0.379264265298843 
1455	 0.379393845796585 
1456	 0.379523277282715 
1457	 0.379609525203705 
1458	 0.379706889390945 
1459	 0.379815518856049 
1460	 0.379900753498077 
1461	 0.379977852106094 
1462	 0.380046904087067 
1463	 0.380084753036499 
1464	 0.380138427019119 
1465	 0.380202442407608 
1466	 0.380245059728622 
1467	 0.380303591489792 
1468	 0.380324512720108 
1469	 0.38027960062027 
1470	 0.380281537771225 
1471	 0.380302608013153 
1472	 0.38030669093132 
1473	 0.380315065383911 
1474	 0.380335122346878 
1475	 0.380360275506973 
1476	 0.380347043275833 
1477	 0.3803690969944 
1478	 0.380415797233582 
1479	 0.380364894866943 
1480	 0.380337476730347 
1481	 0.380361795425415 
1482	 0.380366832017899 
1483	 0.380422115325928 
1484	 0.380488306283951 
1485	 0.380468934774399 
1486	 0.380443572998047 
1487	 0.380429446697235 
1488	 0.380368530750275 
1489	 0.380374372005463 
1490	 0.380403488874435 
1491	 0.380394726991653 
1492	 0.38045397400856 
1493	 0.380468994379044 
1494	 0.380459994077683 
1495	 0.380452036857605 
1496	 0.380440056324005 
1497	 0.380417376756668 
1498	 0.380372524261475 
1499	 0.380366861820221 
1500	 0.380378723144531 
1501	 0.380383163690567 
1502	 0.380416512489319 
1503	 0.38041016459465 
1504	 0.380363821983337 
1505	 0.380356907844543 
1506	 0.380356043577194 
1507	 0.380354970693588 
1508	 0.380385756492615 
1509	 0.380375027656555 
1510	 0.380338937044144 
1511	 0.380306392908096 
1512	 0.380251675844193 
1513	 0.380222082138062 
1514	 0.380191534757614 
1515	 0.380172371864319 
1516	 0.380163580179214 
1517	 0.380171447992325 
1518	 0.380217254161835 
1519	 0.380227774381638 
1520	 0.380243182182312 
1521	 0.380235999822617 
1522	 0.380171865224838 
1523	 0.380147665739059 
1524	 0.380169838666916 
1525	 0.380135923624039 
1526	 0.380049914121628 
1527	 0.380023092031479 
1528	 0.379999309778214 
1529	 0.379968762397766 
1530	 0.379982531070709 
1531	 0.380006313323975 
1532	 0.379927575588226 
1533	 0.379807859659195 
1534	 0.379708111286163 
1535	 0.379611700773239 
1536	 0.379534482955933 
1537	 0.379486382007599 
1538	 0.379395425319672 
1539	 0.37928980588913 
1540	 0.379228472709656 
1541	 0.379182308912277 
1542	 0.379153311252594 
1543	 0.379109025001526 
1544	 0.379027754068375 
1545	 0.378949701786041 
1546	 0.378896117210388 
1547	 0.378861457109451 
1548	 0.378831386566162 
1549	 0.378765851259232 
1550	 0.378658324480057 
1551	 0.378561198711395 
1552	 0.378459334373474 
1553	 0.378351300954819 
1554	 0.378314256668091 
1555	 0.3783038854599 
1556	 0.378251373767853 
1557	 0.378187954425812 
1558	 0.378100574016571 
1559	 0.378011971712112 
1560	 0.377967059612274 
1561	 0.377946317195892 
1562	 0.377903431653976 
1563	 0.3778136074543 
1564	 0.377718985080719 
1565	 0.37762463092804 
1566	 0.377545893192291 
1567	 0.377479732036591 
1568	 0.377408355474472 
1569	 0.377349346876144 
1570	 0.377270132303238 
1571	 0.377167046070099 
1572	 0.377090305089951 
1573	 0.377029299736023 
1574	 0.376932680606842 
1575	 0.376833647489548 
1576	 0.376756757497787 
1577	 0.376654088497162 
1578	 0.376550942659378 
1579	 0.37648007273674 
1580	 0.376382440328598 
1581	 0.376231849193573 
1582	 0.376163512468338 
1583	 0.376158803701401 
1584	 0.376087576150894 
1585	 0.376012444496155 
1586	 0.375938266515732 
1587	 0.375824987888336 
1588	 0.375742077827454 
1589	 0.375703483819962 
1590	 0.375635176897049 
1591	 0.375528424978256 
1592	 0.375453382730484 
1593	 0.375401586294174 
1594	 0.375325411558151 
1595	 0.375272452831268 
1596	 0.375179350376129 
1597	 0.375026851892471 
1598	 0.374928861856461 
1599	 0.374839782714844 
1600	 0.374747008085251 
1601	 0.374682396650314 
1602	 0.374604403972626 
1603	 0.374500513076782 
1604	 0.374416500329971 
1605	 0.374356776475906 
1606	 0.374290704727173 
1607	 0.374231994152069 
1608	 0.374159961938858 
1609	 0.374090015888214 
1610	 0.373984307050705 
1611	 0.373839914798737 
1612	 0.373725026845932 
1613	 0.373620927333832 
1614	 0.373489320278168 
1615	 0.373337805271149 
1616	 0.373230338096619 
1617	 0.373112499713898 
1618	 0.37301567196846 
1619	 0.372974812984467 
1620	 0.372902810573578 
1621	 0.372830122709274 
1622	 0.372728407382965 
1623	 0.37260228395462 
1624	 0.372494608163834 
1625	 0.372352540493011 
1626	 0.372250258922577 
1627	 0.372216671705246 
1628	 0.372122257947922 
1629	 0.371982216835022 
1630	 0.371894717216492 
1631	 0.371806174516678 
1632	 0.371711105108261 
1633	 0.371674090623856 
1634	 0.371573269367218 
1635	 0.371436446905136 
1636	 0.371295511722565 
1637	 0.371092975139618 
1638	 0.370946496725082 
1639	 0.370806246995926 
1640	 0.370694190263748 
1641	 0.370634347200394 
1642	 0.370577871799469 
1643	 0.370524495840073 
1644	 0.370474100112915 
1645	 0.370473206043243 
1646	 0.370398133993149 
1647	 0.370283901691437 
1648	 0.37017285823822 
1649	 0.369999170303345 
1650	 0.3699109852314 
1651	 0.369884312152863 
1652	 0.369808584451675 
1653	 0.369737863540649 
1654	 0.369644731283188 
1655	 0.369528472423553 
1656	 0.369424432516098 
1657	 0.369331300258636 
1658	 0.369222521781921 
1659	 0.36907234787941 
1660	 0.368974089622498 
1661	 0.368918299674988 
1662	 0.368816882371902 
1663	 0.368719458580017 
1664	 0.368612140417099 
1665	 0.368438184261322 
1666	 0.368373066186905 
1667	 0.368344783782959 
1668	 0.368237107992172 
1669	 0.368144124746323 
1670	 0.368068754673004 
1671	 0.367936491966248 
1672	 0.367849051952362 
1673	 0.367799460887909 
1674	 0.367659270763397 
1675	 0.367494940757751 
1676	 0.367352664470673 
1677	 0.367211669683456 
1678	 0.367109745740891 
1679	 0.367028474807739 
1680	 0.36695459485054 
1681	 0.366881787776947 
1682	 0.366793870925903 
1683	 0.366712749004364 
1684	 0.366620928049088 
1685	 0.366506218910217 
1686	 0.366395562887192 
1687	 0.366282910108566 
1688	 0.366207748651505 
1689	 0.366153091192245 
1690	 0.366061270236969 
1691	 0.365963011980057 
1692	 0.365804612636566 
1693	 0.365600317716599 
1694	 0.365467816591263 
1695	 0.365361034870148 
1696	 0.36527618765831 
1697	 0.36529666185379 
1698	 0.365299999713898 
1699	 0.365235686302185 
1700	 0.365206688642502 
1701	 0.365130871534348 
1702	 0.365006893873215 
1703	 0.364925682544708 
1704	 0.364803075790405 
1705	 0.364637345075607 
1706	 0.364484667778015 
1707	 0.364343822002411 
1708	 0.364274978637695 
1709	 0.364214330911636 
1710	 0.364110052585602 
1711	 0.36401841044426 
1712	 0.363905757665634 
1713	 0.363778740167618 
1714	 0.363688439130783 
1715	 0.363625645637512 
1716	 0.363558202981949 
1717	 0.363489210605621 
1718	 0.363425642251968 
1719	 0.36331370472908 
1720	 0.363113313913345 
1721	 0.362919747829437 
1722	 0.362804502248764 
1723	 0.362715274095535 
1724	 0.362668663263321 
1725	 0.362639099359512 
1726	 0.362464547157288 
1727	 0.362333238124847 
1728	 0.362202078104019 
1729	 0.362052500247955 
1730	 0.361925810575485 
1731	 0.36178383231163 
1732	 0.361596345901489 
1733	 0.361456543207169 
1734	 0.361366271972656 
1735	 0.361224979162216 
1736	 0.361056447029114 
1737	 0.360893428325653 
1738	 0.360690593719482 
1739	 0.360497206449509 
1740	 0.360389828681946 
1741	 0.360240966081619 
1742	 0.360053718090057 
1743	 0.359924644231796 
1744	 0.359817951917648 
1745	 0.359693884849548 
1746	 0.359583973884583 
1747	 0.359461307525635 
1748	 0.359326213598251 
1749	 0.359210252761841 
1750	 0.359106093645096 
1751	 0.358967185020447 
1752	 0.358773350715637 
1753	 0.358560353517532 
1754	 0.358315020799637 
1755	 0.358096480369568 
1756	 0.357899993658066 
1757	 0.357694357633591 
1758	 0.35755380988121 
1759	 0.357378095388412 
1760	 0.357180207967758 
1761	 0.357042968273163 
1762	 0.356890588998795 
1763	 0.356785833835602 
1764	 0.356703102588654 
1765	 0.356570512056351 
1766	 0.356482207775116 
1767	 0.356365352869034 
1768	 0.356198638677597 
1769	 0.35606262087822 
1770	 0.355889976024628 
1771	 0.355733424425125 
1772	 0.355622440576553 
1773	 0.355534821748734 
1774	 0.355437278747559 
1775	 0.355290561914444 
1776	 0.355171591043472 
1777	 0.355051577091217 
1778	 0.3549644947052 
1779	 0.354877293109894 
1780	 0.354804068803787 
1781	 0.354710310697556 
1782	 0.354610025882721 
1783	 0.354533106088638 
1784	 0.354482054710388 
1785	 0.354434311389923 
1786	 0.354385316371918 
1787	 0.354347378015518 
1788	 0.354278683662415 
1789	 0.354197442531586 
1790	 0.35409688949585 
1791	 0.353978395462036 
1792	 0.353863120079041 
1793	 0.353706061840057 
1794	 0.353568464517593 
1795	 0.353472977876663 
1796	 0.353353947401047 
1797	 0.353250354528427 
1798	 0.353194117546082 
1799	 0.353125691413879 
1800	 0.353089332580566 
1801	 0.353083997964859 
1802	 0.35299089550972 
1803	 0.352844417095184 
1804	 0.352662146091461 
1805	 0.352471441030502 
1806	 0.352369785308838 
1807	 0.352295130491257 
1808	 0.35220268368721 
1809	 0.352067112922668 
1810	 0.351876854896545 
1811	 0.351684719324112 
1812	 0.351531654596329 
1813	 0.351435840129852 
1814	 0.351335525512695 
1815	 0.35120216012001 
1816	 0.351069003343582 
1817	 0.350917905569077 
1818	 0.350698620080948 
1819	 0.350492119789124 
1820	 0.350333094596863 
1821	 0.350120425224304 
1822	 0.349922865629196 
1823	 0.349726676940918 
1824	 0.349445790052414 
1825	 0.349146962165833 
1826	 0.348826259374619 
1827	 0.348529011011124 
1828	 0.348244667053223 
1829	 0.347975552082062 
1830	 0.347681820392609 
1831	 0.356940150260925 
1832	 0.356779724359512 
1833	 0.35657325387001 
1834	 0.356290221214294 
1835	 0.356103599071503 
1836	 0.35599547624588 
1837	 0.355841845273972 
1838	 0.355690747499466 
1839	 0.355586320161819 
1840	 0.355391561985016 
1841	 0.355171531438828 
1842	 0.354973644018173 
1843	 0.354818046092987 
1844	 0.354723215103149 
1845	 0.354744732379913 
1846	 0.354701787233353 
1847	 0.354691982269287 
1848	 0.354605615139008 
1849	 0.354536682367325 
1850	 0.354497164487839 
1851	 0.354455083608627 
1852	 0.354518830776215 
1853	 0.354585230350494 
1854	 0.354646891355515 
1855	 0.354684710502625 
1856	 0.354716926813126 
1857	 0.354729831218719 
1858	 0.354774475097656 
1859	 0.354677379131317 
1860	 0.354536205530167 
1861	 0.354487091302872 
1862	 0.354277551174164 
1863	 0.35407093167305 
1864	 0.353957116603851 
1865	 0.353745967149735 
1866	 0.353496611118317 
1867	 0.353187739849091 
1868	 0.352944433689117 
1869	 0.352706521749496 
1870	 0.352413475513458 
1871	 0.35214564204216 
1872	 0.35184046626091 
1873	 0.351448208093643 
1874	 0.350993871688843 
1875	 0.350447028875351 
1876	 0.349819481372833 
1877	 0.349204510450363 
1878	 0.348533481359482 
1879	 0.34783998131752 
1880	 0.347114622592926 
1881	 0.346445053815842 
1882	 0.345670938491821 
1883	 0.344738394021988 
1884	 0.343806684017181 
1885	 0.342839628458023 
1886	 0.341810673475266 
1887	 0.340789437294006 
1888	 0.339754700660706 
1889	 0.338753223419189 
1890	 0.337629199028015 
1891	 0.33641254901886 
1892	 0.33520781993866 
1893	 0.333917945623398 
1894	 0.332552909851074 
1895	 0.331223994493485 
1896	 0.329900830984116 
1897	 0.328454315662384 
1898	 0.327006250619888 
1899	 0.325606197118759 
1900	 0.324213027954102 
1901	 0.322772115468979 
1902	 0.321455389261246 
1903	 0.320229321718216 
1904	 0.31904610991478 
1905	 0.317988485097885 
1906	 0.317005693912506 
1907	 0.316079348325729 
1908	 0.315253704786301 
1909	 0.314540505409241 
1910	 0.313878893852234 
1911	 0.313281863927841 
1912	 0.312782555818558 
1913	 0.312350511550903 
1914	 0.311860322952271 
1915	 0.311539381742477 
1916	 0.311400532722473 
1917	 0.311230599880219 
1918	 0.311103194952011 
1919	 0.311007142066956 
1920	 0.310824573040009 
1921	 0.310756862163544 
1922	 0.310703814029694 
1923	 0.310766667127609 
1924	 0.310688763856888 
1925	 0.310618728399277 
1926	 0.310505002737045 
1927	 0.310351341962814 
1928	 0.310313880443573 
1929	 0.310302704572678 
1930	 0.31027364730835 
1931	 0.310259968042374 
1932	 0.310291141271591 
1933	 0.310331404209137 
1934	 0.310398012399673 
1935	 0.310466438531876 
1936	 0.310509443283081 
1937	 0.310514986515045 
1938	 0.310530364513397 
1939	 0.310568034648895 
1940	 0.310652494430542 
1941	 0.31074595451355 
1942	 0.310764759778976 
1943	 0.310746639966965 
1944	 0.310748934745789 
1945	 0.310735911130905 
1946	 0.310696870088577 
1947	 0.310627430677414 
1948	 0.310621112585068 
1949	 0.310644090175629 
1950	 0.310716867446899 
1951	 0.310862392187119 
1952	 0.310983061790466 
1953	 0.311063557863235 
1954	 0.311115562915802 
1955	 0.311145603656769 
1956	 0.311239629983902 
1957	 0.31130787730217 
1958	 0.311335474252701 
1959	 0.311396360397339 
1960	 0.311487525701523 
1961	 0.311541616916656 
1962	 0.311638236045837 
1963	 0.311808973550797 
1964	 0.311924934387207 
1965	 0.31203818321228 
1966	 0.312132358551025 
1967	 0.312180310487747 
1968	 0.312279969453812 
1969	 0.312411457300186 
1970	 0.312553852796555 
1971	 0.312753081321716 
1972	 0.312875151634216 
1973	 0.312994241714478 
1974	 0.31305518746376 
1975	 0.313030570745468 
1976	 0.313065886497498 
1977	 0.313220739364624 
1978	 0.313402384519577 
1979	 0.313508570194244 
1980	 0.313648790121078 
1981	 0.31382018327713 
1982	 0.313947379589081 
1983	 0.314091950654984 
1984	 0.314308196306229 
1985	 0.314516186714172 
1986	 0.314708679914474 
1987	 0.314889430999756 
1988	 0.315053761005402 
1989	 0.315213948488235 
1990	 0.315307855606079 
1991	 0.315387338399887 
1992	 0.315554141998291 
1993	 0.315721392631531 
1994	 0.315870076417923 
1995	 0.316001087427139 
1996	 0.316170394420624 
1997	 0.316319912672043 
1998	 0.316504329442978 
1999	 0.316736876964569 
2000	 0.316983133554459 
2001	 0.317161202430725 
2002	 0.317361056804657 
2003	 0.317583024501801 
2004	 0.317764759063721 
2005	 0.317919194698334 
2006	 0.318102389574051 
2007	 0.318278223276138 
2008	 0.318434208631516 
2009	 0.3185915350914 
2010	 0.31871709227562 
2011	 0.318903684616089 
2012	 0.319136172533035 
2013	 0.319344222545624 
2014	 0.319479525089264 
2015	 0.319735825061798 
2016	 0.319893062114716 
2017	 0.319925785064697 
2018	 0.320086359977722 
2019	 0.320244908332825 
2020	 0.320386111736298 
2021	 0.320561140775681 
2022	 0.320675790309906 
2023	 0.320743829011917 
2024	 0.320814222097397 
2025	 0.32085394859314 
2026	 0.320908427238464 
2027	 0.320955604314804 
2028	 0.321004658937454 
2029	 0.321102201938629 
2030	 0.321138262748718 
2031	 0.321143805980682 
2032	 0.32114577293396 
2033	 0.321169435977936 
2034	 0.321246773004532 
2035	 0.321282058954239 
2036	 0.321353763341904 
2037	 0.321406155824661 
2038	 0.321391403675079 
2039	 0.321394562721252 
2040	 0.321453154087067 
2041	 0.321471780538559 
2042	 0.321434140205383 
2043	 0.321453392505646 
2044	 0.321471124887466 
2045	 0.321443855762482 
2046	 0.321451187133789 
2047	 0.321509927511215 
2048	 0.321529895067215 
2049	 0.321558177471161 
2050	 0.321543872356415 
2051	 0.321497142314911 
2052	 0.321457594633102 
2053	 0.321393936872482 
2054	 0.321363359689713 
2055	 0.321306586265564 
2056	 0.32129642367363 
2057	 0.321332156658173 
2058	 0.321386575698853 
2059	 0.321359723806381 
2060	 0.321362465620041 
2061	 0.32134547829628 
2062	 0.321242272853851 
2063	 0.321157842874527 
2064	 0.321082800626755 
2065	 0.320969730615616 
2066	 0.320790112018585 
2067	 0.320645987987518 
2068	 0.320512801408768 
2069	 0.320365995168686 
2070	 0.320246696472168 
2071	 0.320059090852737 
2072	 0.319854587316513 
2073	 0.319580405950546 
2074	 0.319299817085266 
2075	 0.319023758172989 
2076	 0.318715482950211 
2077	 0.318407237529755 
2078	 0.317997068166733 
2079	 0.317483842372894 
2080	 0.317011326551437 
2081	 0.316510409116745 
2082	 0.31598624587059 
2083	 0.315505236387253 
2084	 0.314917653799057 
2085	 0.314272731542587 
2086	 0.313558667898178 
2087	 0.312772303819656 
2088	 0.31192621588707 
2089	 0.310977280139923 
2090	 0.310034155845642 
2091	 0.3090940117836 
2092	 0.308095067739487 
2093	 0.307089745998383 
2094	 0.306038349866867 
2095	 0.304902493953705 
2096	 0.303735882043839 
2097	 0.302615523338318 
2098	 0.301511347293854 
2099	 0.300371199846268 
2100	 0.299192756414413 
2101	 0.298125386238098 
2102	 0.297087162733078 
2103	 0.296038299798965 
2104	 0.295015513896942 
2105	 0.294059008359909 
2106	 0.293077200651169 
2107	 0.292227894067764 
2108	 0.291364252567291 
2109	 0.290531545877457 
2110	 0.28982600569725 
2111	 0.289023637771606 
2112	 0.288268268108368 
2113	 0.28775680065155 
2114	 0.287143141031265 
2115	 0.286411106586456 
2116	 0.285871475934982 
2117	 0.285437881946564 
2118	 0.285024791955948 
2119	 0.284738212823868 
2120	 0.284426271915436 
2121	 0.284023016691208 
2122	 0.283840179443359 
2123	 0.283830940723419 
2124	 0.283777952194214 
2125	 0.283834010362625 
2126	 0.283934950828552 
2127	 0.283960461616516 
2128	 0.283956497907639 
2129	 0.284032642841339 
2130	 0.284108847379684 
2131	 0.28414598107338 
2132	 0.284149914979935 
2133	 0.284103244543076 
2134	 0.284054487943649 
2135	 0.283877164125443 
2136	 0.283611506223679 
2137	 0.2833012342453 
2138	 0.282939791679382 
2139	 0.282486945390701 
2140	 0.281965404748917 
2141	 0.281345516443253 
2142	 0.280599296092987 
2143	 0.279802024364471 
2144	 0.278930217027664 
2145	 0.278036743402481 
2146	 0.27702134847641 
2147	 0.275905162096024 
2148	 0.274713754653931 
2149	 0.273538768291473 
2150	 0.272321224212646 
2151	 0.271003514528275 
2152	 0.269494622945786 
2153	 0.267761409282684 
2154	 0.266106873750687 
2155	 0.26442950963974 
2156	 0.26253753900528 
2157	 0.260589390993118 
2158	 0.258538246154785 
2159	 0.256229549646378 
2160	 0.253926962614059 
2161	 0.251762837171555 
2162	 0.249273538589478 
2163	 0.246539607644081 
2164	 0.243723928928375 
2165	 0.240820363163948 
2166	 0.237720966339111 
2167	 0.234487667679787 
2168	 0.231136545538902 
2169	 0.227568596601486 
2170	 0.223796889185905 
2171	 0.219951525330544 
2172	 0.215984106063843 
2173	 0.211877271533012 
2174	 0.207572504878044 
2175	 0.203223019838333 
2176	 0.198706194758415 
2177	 0.19424569606781 
2178	 0.189682230353355 
2179	 0.185186818242073 
2180	 0.180699363350868 
2181	 0.176240369677544 
2182	 0.17165344953537 
2183	 0.167354345321655 
2184	 0.163095220923424 
2185	 0.159097701311111 
2186	 0.155306681990623 
2187	 0.151762306690216 
2188	 0.148396700620651 
2189	 0.145290300250053 
2190	 0.14241635799408 
2191	 0.139752760529518 
2192	 0.137454479932785 
2193	 0.135472476482391 
2194	 0.133815810084343 
2195	 0.132534816861153 
2196	 0.131454199552536 
2197	 0.130588486790657 
2198	 0.130120784044266 
2199	 0.130020454525948 
2200	 0.130142048001289 
2201	 0.130631178617477 
2202	 0.13131195306778 
2203	 0.132286608219147 
2204	 0.133383244276047 
2205	 0.134687945246696 
2206	 0.136224061250687 
2207	 0.137910395860672 
2208	 0.139862820506096 
2209	 0.142222836613655 
2210	 0.144583433866501 
2211	 0.14706863462925 
2212	 0.149714946746826 
2213	 0.152456298470497 
2214	 0.155250698328018 
2215	 0.15828312933445 
2216	 0.161394566297531 
2217	 0.164451450109482 
2218	 0.167579129338264 
2219	 0.170718669891357 
2220	 0.173749655485153 
2221	 0.176832616329193 
2222	 0.179799720644951 
2223	 0.182627737522125 
2224	 0.185358613729477 
2225	 0.188007384538651 
2226	 0.190588682889938 
2227	 0.192917883396149 
2228	 0.195061385631561 
2229	 0.197111800312996 
2230	 0.198885872960091 
2231	 0.200743824243546 
2232	 0.202659294009209 
2233	 0.204387590289116 
2234	 0.206011086702347 
2235	 0.207525625824928 
2236	 0.208881452679634 
2237	 0.210214868187904 
2238	 0.211423069238663 
2239	 0.21264873445034 
2240	 0.213969528675079 
2241	 0.215113624930382 
2242	 0.216234564781189 
2243	 0.217407792806625 
2244	 0.218355819582939 
2245	 0.219224497675896 
2246	 0.220189407467842 
2247	 0.221004590392113 
2248	 0.221863895654678 
2249	 0.222827389836311 
2250	 0.223618790507317 
2251	 0.224347785115242 
2252	 0.224987760186195 
2253	 0.225494906306267 
2254	 0.226023390889168 
2255	 0.226423189043999 
2256	 0.226981192827225 
2257	 0.227673590183258 
2258	 0.228230595588684 
2259	 0.228813618421555 
2260	 0.229286149144173 
2261	 0.229625806212425 
2262	 0.229946807026863 
2263	 0.230189606547356 
2264	 0.230535373091698 
2265	 0.230890735983849 
2266	 0.231213375926018 
2267	 0.231729477643967 
2268	 0.231945052742958 
2269	 0.231833308935165 
2270	 0.231905341148376 
2271	 0.231974691152573 
2272	 0.231936365365982 
2273	 0.231895372271538 
2274	 0.232041701674461 
2275	 0.231935247778893 
2276	 0.231692254543304 
2277	 0.231652081012726 
2278	 0.231501057744026 
2279	 0.231170758605003 
2280	 0.230779901146889 
2281	 0.230329215526581 
2282	 0.229820802807808 
2283	 0.229131013154984 
2284	 0.228428781032562 
2285	 0.227903679013252 
2286	 0.227290421724319 
2287	 0.226703152060509 
2288	 0.226209759712219 
2289	 0.225444301962852 
2290	 0.224524423480034 
2291	 0.223611295223236 
2292	 0.222674950957298 
2293	 0.221685603260994 
2294	 0.220649376511574 
2295	 0.219493970274925 
2296	 0.218304648995399 
2297	 0.216996073722839 
2298	 0.215444460511208 
2299	 0.214041292667389 
2300	 0.212717965245247 
2301	 0.211229622364044 
2302	 0.209664613008499 
2303	 0.208127230405807 
2304	 0.20642101764679 
2305	 0.204868048429489 
2306	 0.203598290681839 
2307	 0.202014476060867 
2308	 0.20025523006916 
2309	 0.198576241731644 
2310	 0.196687385439873 
2311	 0.194927632808685 
2312	 0.193421691656113 
2313	 0.191693544387817 
2314	 0.189819663763046 
2315	 0.188034012913704 
2316	 0.186237841844559 
2317	 0.184324562549591 
2318	 0.182631686329842 
2319	 0.180833548307419 
2320	 0.179030925035477 
2321	 0.177350252866745 
2322	 0.175642356276512 
2323	 0.174055829644203 
2324	 0.172417223453522 
2325	 0.170703336596489 
2326	 0.168977975845337 
2327	 0.167247503995895 
2328	 0.165721550583839 
2329	 0.164164334535599 
2330	 0.162510707974434 
2331	 0.16093672811985 
2332	 0.159036412835121 
2333	 0.157300114631653 
2334	 0.156106382608414 
2335	 0.154757514595985 
2336	 0.153520539402962 
2337	 0.152501121163368 
2338	 0.151290789246559 
2339	 0.150315076112747 
2340	 0.149707943201065 
2341	 0.149039939045906 
2342	 0.148287370800972 
2343	 0.147464588284492 
2344	 0.146822020411491 
2345	 0.146417230367661 
2346	 0.145999893546104 
2347	 0.14565110206604 
2348	 0.145429372787476 
2349	 0.145401924848557 
2350	 0.145485043525696 
2351	 0.145935162901878 
2352	 0.14622850716114 
2353	 0.14645329117775 
2354	 0.146778210997581 
2355	 0.147173926234245 
2356	 0.147736012935638 
2357	 0.148430749773979 
2358	 0.149029895663261 
2359	 0.149779185652733 
2360	 0.150323703885078 
2361	 0.150712415575981 
2362	 0.151190787553787 
2363	 0.151683628559113 
2364	 0.152030572295189 
2365	 0.152287125587463 
2366	 0.152614638209343 
2367	 0.152972429990768 
2368	 0.153088763356209 
2369	 0.153041645884514 
2370	 0.153223246335983 
2371	 0.153353720903397 
2372	 0.153429850935936 
2373	 0.153821751475334 
2374	 0.1537706553936 
2375	 0.153203442692757 
2376	 0.1529590934515 
2377	 0.152654767036438 
2378	 0.152563020586967 
2379	 0.152757152915001 
2380	 0.152733907103539 
2381	 0.152730450034142 
2382	 0.152667745947838 
2383	 0.152458921074867 
2384	 0.152335926890373 
2385	 0.152217775583267 
2386	 0.152162507176399 
2387	 0.152123361825943 
2388	 0.152040496468544 
2389	 0.152126386761665 
2390	 0.152058199048042 
2391	 0.151782214641571 
2392	 0.151662304997444 
2393	 0.151469424366951 
2394	 0.151386633515358 
2395	 0.151677697896957 
2396	 0.151502966880798 
2397	 0.151098981499672 
2398	 0.150759786367416 
2399	 0.150118976831436 
2400	 0.149597629904747 
2401	 0.149277746677399 
2402	 0.148803055286407 
2403	 0.148193195462227 
2404	 0.147551327943802 
2405	 0.146787866950035 
2406	 0.146163359284401 
2407	 0.145631402730942 
2408	 0.144911289215088 
2409	 0.144321322441101 
2410	 0.143446281552315 
2411	 0.142052784562111 
2412	 0.141138345003128 
2413	 0.140324622392654 
2414	 0.139622837305069 
2415	 0.139287739992142 
2416	 0.138605326414108 
2417	 0.137817323207855 
2418	 0.13700470328331 
2419	 0.136123031377792 
2420	 0.135204389691353 
2421	 0.134154036641121 
2422	 0.133194029331207 
2423	 0.131987288594246 
2424	 0.13129098713398 
2425	 0.131069093942642 
2426	 0.13062447309494 
2427	 0.130450397729874 
2428	 0.12991788983345 
2429	 0.128949284553528 
2430	 0.128424882888794 
2431	 0.128149822354317 
2432	 0.127689465880394 
2433	 0.127300798892975 
2434	 0.126790314912796 
2435	 0.126074180006981 
2436	 0.125288560986519 
2437	 0.124392934143543 
2438	 0.124065168201923 
2439	 0.123781733214855 
2440	 0.123676009476185 
2441	 0.124116234481335 
2442	 0.12427607178688 
2443	 0.124254070222378 
2444	 0.124445684254169 
2445	 0.124929562211037 
2446	 0.125068292021751 
2447	 0.125045359134674 
2448	 0.125291854143143 
2449	 0.125466421246529 
2450	 0.125756800174713 
2451	 0.126324266195297 
2452	 0.12646621465683 
2453	 0.126486554741859 
2454	 0.126493722200394 
2455	 0.126389741897583 
2456	 0.127127110958099 
2457	 0.127073034644127 
2458	 0.127355888485909 
2459	 0.128588005900383 
2460	 0.12893071770668 
2461	 0.128828451037407 
2462	 0.129203543066978 
2463	 0.12918022274971 
2464	 0.13015852868557 
2465	 0.130706787109375 
2466	 0.130656346678734 
2467	 0.131011679768562 
2468	 0.131405889987946 
2469	 0.131835207343102 
2470	 0.132936626672745 
2471	 0.133461430668831 
2472	 0.133264124393463 
2473	 0.13354954123497 
2474	 0.134118661284447 
2475	 0.134183883666992 
2476	 0.133987486362457 
2477	 0.134197741746902 
2478	 0.134243801236153 
2479	 0.134258508682251 
2480	 0.134698197245598 
2481	 0.135111525654793 
2482	 0.13519175350666 
2483	 0.135417461395264 
2484	 0.136462703347206 
2485	 0.13643491268158 
2486	 0.135288164019585 
2487	 0.134993135929108 
2488	 0.134330108761787 
2489	 0.134374976158142 
2490	 0.135711118578911 
2491	 0.135985374450684 
2492	 0.135798156261444 
2493	 0.136014863848686 
2494	 0.135872229933739 
2495	 0.136188670992851 
2496	 0.13728366792202 
2497	 0.137605354189873 
2498	 0.137431651353836 
2499	 0.137888595461845 
2500	 0.138416677713394 
