
Text conversion of header file \A_MEDIDAS\PROJETOS\BRASIL\BLOCO GAVIAO\JACOBINA\CANIF27\sco\CANIF27_029.70_00002.asd.ref
 -------------------------------------------------------------
                                                                                                                                                            
The instrument number was  16586/1
New ASD spectrum file: Program version = 6.00 file version = 1.00
Spectrum saved: 10/16/2018 at 10:17:23
VNIR integration time : 34
VNIR channel 1 wavelength = 350 wavelength step = 1
There were 50 samples per data value
xmin = 350 xmax= 2500
ymin= 0 ymax= 1.25
The instrument digitizes spectral values to 16 bits
SWIR1 gain was 203 offset was 2094
SWIR2 gain was 499 offset was 2264
Join between VNIR and SWIR1 was 1000 nm
Join between SWIR1 and SWIR2 was 1830 nm
Absolute Reflectance is Enabled
The Absolute Reflectance File is abs165861.ref
VNIR dark signal subtracted
50 dark measurements taken Tue Oct 16 10:13:56 2018
DCC value was 0
Data is compared to a white reference:
60 white reference measurements taken Tue Oct 16 10:14:04 2018
There was no foreoptic attached
Spectrum file is reflectance data
GPS-Latitude is S0
GPS-Longitude is E0
GPS-Altitude is 0
GPS-UTC is Wed Dec 31 17:00:00 1969

Smart Detector
Serial#  0
Signal (A)  0.000E00
Dark (A)  0.000E00
Ref (A)  0.000E00
Status  0 - Uninitialized
Gain  E-4
Averaging  0
Temp (C)  0.0
Humid (%)  0.0

Reflectance Absolute
Wavelength	CANIF27_29.70_00002.asd.ref
350	 0.156658038496971 
351	 0.142993316054344 
352	 0.143383994698524 
353	 0.153811350464821 
354	 0.160951793193817 
355	 0.144961133599281 
356	 0.144032448530197 
357	 0.151525929570198 
358	 0.151249647140503 
359	 0.158733695745468 
360	 0.157286211848259 
361	 0.150805965065956 
362	 0.155117467045784 
363	 0.155672624707222 
364	 0.154995962977409 
365	 0.155309334397316 
366	 0.155639782547951 
367	 0.15444752573967 
368	 0.155683740973473 
369	 0.161006465554237 
370	 0.162998929619789 
371	 0.161237090826035 
372	 0.159762844443321 
373	 0.162991091609001 
374	 0.164621219038963 
375	 0.164367586374283 
376	 0.163324609398842 
377	 0.163287863135338 
378	 0.163824513554573 
379	 0.164577379822731 
380	 0.165346994996071 
381	 0.166418805718422 
382	 0.166672185063362 
383	 0.166918441653252 
384	 0.167976409196854 
385	 0.166409075260162 
386	 0.166077822446823 
387	 0.167636930942535 
388	 0.168609410524368 
389	 0.169539913535118 
390	 0.16919581592083 
391	 0.167916059494019 
392	 0.169880926609039 
393	 0.170265078544617 
394	 0.169267907738686 
395	 0.168696939945221 
396	 0.16951322555542 
397	 0.16985610127449 
398	 0.169608116149902 
399	 0.169989302754402 
400	 0.169989407062531 
401	 0.170267432928085 
402	 0.171065524220467 
403	 0.171560183167458 
404	 0.171385303139687 
405	 0.171240627765656 
406	 0.171700224280357 
407	 0.171431869268417 
408	 0.171301260590553 
409	 0.171274751424789 
410	 0.17083428800106 
411	 0.171656876802444 
412	 0.172014057636261 
413	 0.171348109841347 
414	 0.171524226665497 
415	 0.172209724783897 
416	 0.172809511423111 
417	 0.172932460904121 
418	 0.173350512981415 
419	 0.173175483942032 
420	 0.172809526324272 
421	 0.173267722129822 
422	 0.173019126057625 
423	 0.173082068562508 
424	 0.173552468419075 
425	 0.172693818807602 
426	 0.172839447855949 
427	 0.173503518104553 
428	 0.173785760998726 
429	 0.174230441451073 
430	 0.174114316701889 
431	 0.173554196953773 
432	 0.173231989145279 
433	 0.1738510876894 
434	 0.174258798360825 
435	 0.174052312970161 
436	 0.174243956804276 
437	 0.174546763300896 
438	 0.175016403198242 
439	 0.175569370388985 
440	 0.175358444452286 
441	 0.175142407417297 
442	 0.175232291221619 
443	 0.175537496805191 
444	 0.175307944417 
445	 0.17529071867466 
446	 0.175751328468323 
447	 0.175895541906357 
448	 0.175826594233513 
449	 0.175777837634087 
450	 0.175946027040482 
451	 0.176178976893425 
452	 0.176271170377731 
453	 0.176314905285835 
454	 0.176585122942925 
455	 0.176745533943176 
456	 0.176841601729393 
457	 0.176878035068512 
458	 0.176633581519127 
459	 0.176660135388374 
460	 0.176776647567749 
461	 0.176696568727493 
462	 0.176927700638771 
463	 0.177082300186157 
464	 0.177020072937012 
465	 0.176872774958611 
466	 0.176953837275505 
467	 0.177199363708496 
468	 0.17740897834301 
469	 0.177211225032806 
470	 0.177178949117661 
471	 0.177290678024292 
472	 0.177311137318611 
473	 0.177285626530647 
474	 0.177308708429337 
475	 0.177359148859978 
476	 0.177296236157417 
477	 0.17738151550293 
478	 0.177455425262451 
479	 0.177410945296288 
480	 0.177547201514244 
481	 0.177615538239479 
482	 0.177626594901085 
483	 0.177717432379723 
484	 0.177933916449547 
485	 0.178086638450623 
486	 0.178101927042007 
487	 0.178086921572685 
488	 0.178207859396935 
489	 0.178353637456894 
490	 0.178395569324493 
491	 0.178416460752487 
492	 0.178463071584702 
493	 0.178559243679047 
494	 0.178693935275078 
495	 0.178694039583206 
496	 0.178740978240967 
497	 0.178867518901825 
498	 0.178776189684868 
499	 0.178821504116058 
500	 0.178909793496132 
501	 0.178876802325249 
502	 0.178883403539658 
503	 0.178900897502899 
504	 0.178928732872009 
505	 0.1789840310812 
506	 0.178961411118507 
507	 0.178796127438545 
508	 0.178578019142151 
509	 0.178714141249657 
510	 0.178859204053879 
511	 0.178913146257401 
512	 0.178881719708443 
513	 0.178834453225136 
514	 0.178746685385704 
515	 0.178668320178986 
516	 0.178720608353615 
517	 0.178752645850182 
518	 0.17864017188549 
519	 0.178427904844284 
520	 0.178601607680321 
521	 0.178627386689186 
522	 0.178476274013519 
523	 0.178362354636192 
524	 0.17832687497139 
525	 0.178286746144295 
526	 0.178221195936203 
527	 0.178207740187645 
528	 0.178111135959625 
529	 0.178016811609268 
530	 0.177999898791313 
531	 0.177916035056114 
532	 0.177773773670197 
533	 0.177617624402046 
534	 0.177510187029839 
535	 0.177444040775299 
536	 0.17739462852478 
537	 0.177328765392303 
538	 0.177202686667442 
539	 0.17705474793911 
540	 0.176911264657974 
541	 0.176794871687889 
542	 0.176737114787102 
543	 0.176618590950966 
544	 0.176461741328239 
545	 0.17639946937561 
546	 0.17628026008606 
547	 0.176160976290703 
548	 0.176079288125038 
549	 0.175958931446075 
550	 0.175781160593033 
551	 0.175593227148056 
552	 0.175453469157219 
553	 0.175297051668167 
554	 0.175175368785858 
555	 0.175111919641495 
556	 0.175089493393898 
557	 0.174963057041168 
558	 0.174795612692833 
559	 0.174663633108139 
560	 0.174547538161278 
561	 0.174376010894775 
562	 0.174188300967216 
563	 0.174068063497543 
564	 0.173941358923912 
565	 0.173816561698914 
566	 0.173706218600273 
567	 0.173618391156197 
568	 0.173544466495514 
569	 0.173425450921059 
570	 0.173254087567329 
571	 0.173266738653183 
572	 0.173224106431007 
573	 0.173071190714836 
574	 0.172899425029755 
575	 0.172790348529816 
576	 0.172680839896202 
577	 0.172535985708237 
578	 0.172414615750313 
579	 0.172255128622055 
580	 0.172073796391487 
581	 0.171896263957024 
582	 0.171658575534821 
583	 0.17145898938179 
584	 0.17133241891861 
585	 0.171250090003014 
586	 0.171245828270912 
587	 0.171189427375793 
588	 0.171018272638321 
589	 0.170886889100075 
590	 0.170671090483665 
591	 0.170418500900269 
592	 0.170227885246277 
593	 0.17008438706398 
594	 0.169955492019653 
595	 0.169820383191109 
596	 0.169671267271042 
597	 0.169435262680054 
598	 0.16919569671154 
599	 0.169021651148796 
600	 0.168850168585777 
601	 0.168719828128815 
602	 0.16860918700695 
603	 0.168479070067406 
604	 0.16841521859169 
605	 0.168297842144966 
606	 0.168098226189613 
607	 0.167923510074615 
608	 0.167827814817429 
609	 0.167746931314468 
610	 0.167611092329025 
611	 0.167437970638275 
612	 0.167276188731194 
613	 0.167149022221565 
614	 0.167058557271957 
615	 0.166981846094131 
616	 0.166921302676201 
617	 0.166851431131363 
618	 0.166696414351463 
619	 0.166599124670029 
620	 0.166532263159752 
621	 0.166442260146141 
622	 0.166377916932106 
623	 0.166301220655441 
624	 0.166241109371185 
625	 0.166255459189415 
626	 0.166164338588715 
627	 0.166078105568886 
628	 0.166066825389862 
629	 0.166061729192734 
630	 0.166080370545387 
631	 0.166082143783569 
632	 0.166037067770958 
633	 0.166022732853889 
634	 0.166061267256737 
635	 0.166116088628769 
636	 0.166113436222076 
637	 0.166100114583969 
638	 0.166117310523987 
639	 0.166164115071297 
640	 0.166159525513649 
641	 0.16621570289135 
642	 0.166230008006096 
643	 0.166103735566139 
644	 0.166086375713348 
645	 0.166094034910202 
646	 0.166085824370384 
647	 0.166067466139793 
648	 0.166037246584892 
649	 0.166085138916969 
650	 0.166220173239708 
651	 0.166271954774857 
652	 0.16633053123951 
653	 0.166412368416786 
654	 0.166501313447952 
655	 0.166541039943695 
656	 0.166569337248802 
657	 0.166618034243584 
658	 0.166704922914505 
659	 0.16678062081337 
660	 0.166870400309563 
661	 0.166976153850555 
662	 0.167028054594994 
663	 0.167176097631454 
664	 0.167345181107521 
665	 0.16742017865181 
666	 0.167451754212379 
667	 0.167535543441772 
668	 0.167663395404816 
669	 0.167755514383316 
670	 0.16790446639061 
671	 0.168000847101212 
672	 0.168021216988564 
673	 0.168132692575455 
674	 0.168249472975731 
675	 0.168328449130058 
676	 0.168353721499443 
677	 0.168366745114326 
678	 0.168373122811317 
679	 0.168366134166718 
680	 0.168334141373634 
681	 0.168297737836838 
682	 0.16827204823494 
683	 0.168252378702164 
684	 0.168207198381424 
685	 0.168167218565941 
686	 0.168181449174881 
687	 0.168273270130157 
688	 0.168377935886383 
689	 0.16850571334362 
690	 0.168591469526291 
691	 0.168565824627876 
692	 0.168609291315079 
693	 0.168715000152588 
694	 0.168839037418365 
695	 0.168920278549194 
696	 0.169001951813698 
697	 0.169117584824562 
698	 0.169268846511841 
699	 0.169373691082001 
700	 0.169576019048691 
701	 0.169774919748306 
702	 0.169824257493019 
703	 0.169918671250343 
704	 0.170038148760796 
705	 0.170163303613663 
706	 0.170282557606697 
707	 0.170328080654144 
708	 0.170389637351036 
709	 0.170517429709435 
710	 0.170645132660866 
711	 0.170704752206802 
712	 0.170759126543999 
713	 0.170868948101997 
714	 0.170910596847534 
715	 0.170965284109116 
716	 0.171060368418694 
717	 0.171170175075531 
718	 0.171151623129845 
719	 0.171207815408707 
720	 0.171355098485947 
721	 0.171340957283974 
722	 0.171358436346054 
723	 0.171431839466095 
724	 0.171515300869942 
725	 0.171475797891617 
726	 0.171460703015327 
727	 0.171508014202118 
728	 0.171596810221672 
729	 0.171668648719788 
730	 0.171642705798149 
731	 0.171575963497162 
732	 0.171615600585938 
733	 0.171656295657158 
734	 0.17168265581131 
735	 0.171690046787262 
736	 0.171672195196152 
737	 0.171669200062752 
738	 0.171652302145958 
739	 0.171609282493591 
740	 0.171631827950478 
741	 0.171617940068245 
742	 0.171585261821747 
743	 0.171591013669968 
744	 0.171598955988884 
745	 0.171566918492317 
746	 0.171531334519386 
747	 0.17157606780529 
748	 0.171536415815353 
749	 0.171491071581841 
750	 0.171487465500832 
751	 0.171471029520035 
752	 0.171450302004814 
753	 0.171409443020821 
754	 0.171346917748451 
755	 0.171307921409607 
756	 0.17132231593132 
757	 0.171312138438225 
758	 0.17120161652565 
759	 0.171163231134415 
760	 0.171145603060722 
761	 0.171111553907394 
762	 0.171052351593971 
763	 0.171036049723625 
764	 0.171020060777664 
765	 0.170974016189575 
766	 0.170903280377388 
767	 0.170808985829353 
768	 0.170696377754211 
769	 0.170589417219162 
770	 0.170556008815765 
771	 0.170488581061363 
772	 0.170406013727188 
773	 0.17034475505352 
774	 0.170228511095047 
775	 0.170145586133003 
776	 0.170091807842255 
777	 0.170015603303909 
778	 0.169944226741791 
779	 0.169840067625046 
780	 0.169731304049492 
781	 0.169696301221848 
782	 0.169620499014854 
783	 0.169485107064247 
784	 0.169326350092888 
785	 0.169232487678528 
786	 0.169157326221466 
787	 0.169067606329918 
788	 0.168936520814896 
789	 0.168735921382904 
790	 0.168611422181129 
791	 0.168585747480392 
792	 0.168590977787971 
793	 0.168419495224953 
794	 0.168217942118645 
795	 0.168100252747536 
796	 0.168103516101837 
797	 0.167990922927856 
798	 0.167873293161392 
799	 0.16776742041111 
800	 0.167603984475136 
801	 0.167437091469765 
802	 0.167317152023315 
803	 0.167251005768776 
804	 0.167192652821541 
805	 0.167081639170647 
806	 0.166948586702347 
807	 0.166826263070107 
808	 0.166714325547218 
809	 0.166641011834145 
810	 0.166580304503441 
811	 0.166486203670502 
812	 0.166292116045952 
813	 0.16614793241024 
814	 0.166076943278313 
815	 0.166024476289749 
816	 0.165842294692993 
817	 0.165690496563911 
818	 0.165595516562462 
819	 0.165500864386559 
820	 0.165322840213776 
821	 0.165193349123001 
822	 0.165115222334862 
823	 0.164998829364777 
824	 0.164852872490883 
825	 0.164732620120049 
826	 0.164641708135605 
827	 0.164533749222755 
828	 0.164426177740097 
829	 0.164316058158875 
830	 0.164203479886055 
831	 0.164093598723412 
832	 0.163961827754974 
833	 0.163850173354149 
834	 0.163745492696762 
835	 0.163534045219421 
836	 0.163455843925476 
837	 0.163407921791077 
838	 0.163287296891212 
839	 0.163166910409927 
840	 0.163035035133362 
841	 0.162914365530014 
842	 0.162811905145645 
843	 0.162668630480766 
844	 0.162584155797958 
845	 0.162520602345467 
846	 0.162415087223053 
847	 0.16229073703289 
848	 0.162134632468224 
849	 0.161987125873566 
850	 0.161892622709274 
851	 0.161824882030487 
852	 0.161756172776222 
853	 0.161671832203865 
854	 0.161568462848663 
855	 0.161453276872635 
856	 0.161313325166702 
857	 0.161159664392471 
858	 0.161024019122124 
859	 0.160960748791695 
860	 0.160937666893005 
861	 0.160906940698624 
862	 0.160826921463013 
863	 0.160721853375435 
864	 0.160622224211693 
865	 0.160522565245628 
866	 0.160398676991463 
867	 0.160300254821777 
868	 0.160194128751755 
869	 0.160092800855637 
870	 0.160048693418503 
871	 0.160086020827293 
872	 0.160065576434135 
873	 0.159940704703331 
874	 0.159776389598846 
875	 0.159660637378693 
876	 0.159619599580765 
877	 0.159616351127625 
878	 0.159565851092339 
879	 0.15940648317337 
880	 0.159273847937584 
881	 0.159245193004608 
882	 0.159290671348572 
883	 0.159236952662468 
884	 0.159134820103645 
885	 0.159060642123222 
886	 0.159059658646584 
887	 0.158981412649155 
888	 0.158882632851601 
889	 0.158807829022408 
890	 0.158753022551537 
891	 0.158657312393188 
892	 0.158556997776031 
893	 0.158494904637337 
894	 0.158494144678116 
895	 0.158490672707558 
896	 0.15848046541214 
897	 0.158453360199928 
898	 0.158393889665604 
899	 0.158334255218506 
900	 0.158268108963966 
901	 0.158213093876839 
902	 0.158200412988663 
903	 0.158197075128555 
904	 0.158133327960968 
905	 0.158048465847969 
906	 0.158042341470718 
907	 0.158026501536369 
908	 0.15795373916626 
909	 0.15788958966732 
910	 0.157928377389908 
911	 0.157891765236855 
912	 0.157832652330399 
913	 0.157783553004265 
914	 0.157748848199844 
915	 0.157706782221794 
916	 0.157707899808884 
917	 0.157712295651436 
918	 0.157664000988007 
919	 0.157650098204613 
920	 0.157648429274559 
921	 0.157619416713715 
922	 0.157542794942856 
923	 0.157479763031006 
924	 0.157438382506371 
925	 0.157463476061821 
926	 0.157548993825912 
927	 0.157532200217247 
928	 0.15748693048954 
929	 0.157467067241669 
930	 0.157477706670761 
931	 0.157435864210129 
932	 0.157424136996269 
933	 0.15742152929306 
934	 0.157408207654953 
935	 0.157403752207756 
936	 0.157273828983307 
937	 0.157223924994469 
938	 0.157318115234375 
939	 0.157366886734962 
940	 0.157311290502548 
941	 0.157257184386253 
942	 0.157243773341179 
943	 0.157223239541054 
944	 0.157193049788475 
945	 0.157207012176514 
946	 0.157209068536758 
947	 0.157120034098625 
948	 0.15712982416153 
949	 0.157104387879372 
950	 0.156995043158531 
951	 0.156830236315727 
952	 0.156698003411293 
953	 0.15665340423584 
954	 0.156632497906685 
955	 0.15656690299511 
956	 0.156485483050346 
957	 0.156443566083908 
958	 0.156458839774132 
959	 0.156457960605621 
960	 0.156287357211113 
961	 0.156164810061455 
962	 0.156184673309326 
963	 0.156236961483955 
964	 0.156113356351852 
965	 0.156155422329903 
966	 0.156231433153152 
967	 0.156266614794731 
968	 0.156263619661331 
969	 0.1562360227108 
970	 0.156316757202148 
971	 0.156410247087479 
972	 0.156402885913849 
973	 0.156400084495544 
974	 0.156375110149384 
975	 0.156378343701363 
976	 0.156422153115273 
977	 0.156438663601875 
978	 0.156448140740395 
979	 0.156443491578102 
980	 0.15642999112606 
981	 0.15642037987709 
982	 0.156385734677315 
983	 0.156359672546387 
984	 0.156284645199776 
985	 0.156138494610786 
986	 0.156192198395729 
987	 0.156136691570282 
988	 0.15609672665596 
989	 0.156152278184891 
990	 0.156068414449692 
991	 0.156042397022247 
992	 0.156070128083229 
993	 0.156101047992706 
994	 0.156068533658981 
995	 0.155821070075035 
996	 0.155822336673737 
997	 0.155910074710846 
998	 0.155752018094063 
999	 0.155728727579117 
1000	 0.155708849430084 
1001	 0.153943195939064 
1002	 0.153901353478432 
1003	 0.1536535769701 
1004	 0.153523400425911 
1005	 0.153371199965477 
1006	 0.153264045715332 
1007	 0.15336050093174 
1008	 0.153344541788101 
1009	 0.153318807482719 
1010	 0.153338029980659 
1011	 0.153307989239693 
1012	 0.153187975287437 
1013	 0.153144970536232 
1014	 0.153150543570518 
1015	 0.153098538517952 
1016	 0.153038516640663 
1017	 0.152961209416389 
1018	 0.152812764048576 
1019	 0.152740627527237 
1020	 0.152721598744392 
1021	 0.152727678418159 
1022	 0.152756825089455 
1023	 0.152749836444855 
1024	 0.152725979685783 
1025	 0.152645692229271 
1026	 0.152597844600677 
1027	 0.152612417936325 
1028	 0.152522429823875 
1029	 0.152381181716919 
1030	 0.152214393019676 
1031	 0.152094393968582 
1032	 0.151961162686348 
1033	 0.151894003152847 
1034	 0.151870787143707 
1035	 0.151744604110718 
1036	 0.151705905795097 
1037	 0.151705965399742 
1038	 0.151668503880501 
1039	 0.15157613158226 
1040	 0.151417180895805 
1041	 0.151280358433723 
1042	 0.151044771075249 
1043	 0.150952622294426 
1044	 0.150928601622581 
1045	 0.150990754365921 
1046	 0.151004776358604 
1047	 0.151018232107162 
1048	 0.151041865348816 
1049	 0.151009008288383 
1050	 0.150982528924942 
1051	 0.15092958509922 
1052	 0.150834664702415 
1053	 0.150699481368065 
1054	 0.150614187121391 
1055	 0.150576710700989 
1056	 0.15052855014801 
1057	 0.150491937994957 
1058	 0.150458320975304 
1059	 0.15036778151989 
1060	 0.150188311934471 
1061	 0.150022268295288 
1062	 0.149896785616875 
1063	 0.149850159883499 
1064	 0.149871423840523 
1065	 0.149892836809158 
1066	 0.149898409843445 
1067	 0.149898380041122 
1068	 0.149837926030159 
1069	 0.14977240562439 
1070	 0.149678662419319 
1071	 0.149606391787529 
1072	 0.149501085281372 
1073	 0.14946374297142 
1074	 0.149476870894432 
1075	 0.149449184536934 
1076	 0.149402111768723 
1077	 0.149385556578636 
1078	 0.149295315146446 
1079	 0.1491928845644 
1080	 0.149183213710785 
1081	 0.149111777544022 
1082	 0.1490428596735 
1083	 0.148983985185623 
1084	 0.148869261145592 
1085	 0.148800447583199 
1086	 0.148732379078865 
1087	 0.148665189743042 
1088	 0.148622915148735 
1089	 0.148618534207344 
1090	 0.14855283498764 
1091	 0.148480460047722 
1092	 0.148406818509102 
1093	 0.148319840431213 
1094	 0.14826300740242 
1095	 0.148189514875412 
1096	 0.148116990923882 
1097	 0.148086354136467 
1098	 0.148078590631485 
1099	 0.148025617003441 
1100	 0.14795409142971 
1101	 0.147904649376869 
1102	 0.147835731506348 
1103	 0.147764831781387 
1104	 0.147771388292313 
1105	 0.147745385766029 
1106	 0.147654518485069 
1107	 0.147588714957237 
1108	 0.14752796292305 
1109	 0.147464126348495 
1110	 0.147482797503471 
1111	 0.147477477788925 
1112	 0.147349625825882 
1113	 0.147275075316429 
1114	 0.147254049777985 
1115	 0.147196516394615 
1116	 0.147138237953186 
1117	 0.1470947265625 
1118	 0.147074222564697 
1119	 0.14703044295311 
1120	 0.146935388445854 
1121	 0.146874189376831 
1122	 0.14685432612896 
1123	 0.146769598126411 
1124	 0.146676138043404 
1125	 0.146626189351082 
1126	 0.146574571728706 
1127	 0.146526157855988 
1128	 0.146519526839256 
1129	 0.146545305848122 
1130	 0.146507620811462 
1131	 0.146489188075066 
1132	 0.146522179245949 
1133	 0.146429970860481 
1134	 0.146370202302933 
1135	 0.146324455738068 
1136	 0.146262049674988 
1137	 0.146109476685524 
1138	 0.146094560623169 
1139	 0.146045163273811 
1140	 0.145947948098183 
1141	 0.145959809422493 
1142	 0.145915508270264 
1143	 0.145842596888542 
1144	 0.145840033888817 
1145	 0.145805835723877 
1146	 0.145795777440071 
1147	 0.145835503935814 
1148	 0.145785346627235 
1149	 0.145714610815048 
1150	 0.145577937364578 
1151	 0.145516261458397 
1152	 0.14544478058815 
1153	 0.145408645272255 
1154	 0.145439326763153 
1155	 0.145427256822586 
1156	 0.145379304885864 
1157	 0.145361810922623 
1158	 0.145315781235695 
1159	 0.145245924592018 
1160	 0.145195990800858 
1161	 0.145129069685936 
1162	 0.145051643252373 
1163	 0.145010501146317 
1164	 0.144968926906586 
1165	 0.144937381148338 
1166	 0.144908532500267 
1167	 0.144912526011467 
1168	 0.144869163632393 
1169	 0.144804745912552 
1170	 0.144739747047424 
1171	 0.144656822085381 
1172	 0.144601762294769 
1173	 0.144562497735023 
1174	 0.144494637846947 
1175	 0.144456654787064 
1176	 0.144440054893494 
1177	 0.144444316625595 
1178	 0.144449919462204 
1179	 0.144378989934921 
1180	 0.144291937351227 
1181	 0.144252777099609 
1182	 0.144198819994926 
1183	 0.144143477082253 
1184	 0.144145146012306 
1185	 0.144096598029137 
1186	 0.143966555595398 
1187	 0.143919706344604 
1188	 0.143919378519058 
1189	 0.143901735544205 
1190	 0.143861472606659 
1191	 0.143797934055328 
1192	 0.143697842955589 
1193	 0.143628358840942 
1194	 0.143648162484169 
1195	 0.143707245588303 
1196	 0.143718600273132 
1197	 0.143673479557037 
1198	 0.143600732088089 
1199	 0.143496170639992 
1200	 0.143436461687088 
1201	 0.143452405929565 
1202	 0.143429920077324 
1203	 0.143401011824608 
1204	 0.143381923437119 
1205	 0.143365696072578 
1206	 0.143327221274376 
1207	 0.143289461731911 
1208	 0.14325150847435 
1209	 0.143184542655945 
1210	 0.143127679824829 
1211	 0.143081828951836 
1212	 0.143053457140923 
1213	 0.143064066767693 
1214	 0.143055379390717 
1215	 0.143031775951385 
1216	 0.143028140068054 
1217	 0.14297653734684 
1218	 0.14292973279953 
1219	 0.142888262867928 
1220	 0.142843425273895 
1221	 0.142801105976105 
1222	 0.142766177654266 
1223	 0.142721235752106 
1224	 0.142674520611763 
1225	 0.142635643482208 
1226	 0.14259772002697 
1227	 0.142551839351654 
1228	 0.14251397550106 
1229	 0.142496019601822 
1230	 0.142487436532974 
1231	 0.142457872629166 
1232	 0.142435997724533 
1233	 0.142386049032211 
1234	 0.142288878560066 
1235	 0.142243832349777 
1236	 0.142228081822395 
1237	 0.142209559679031 
1238	 0.142168715596199 
1239	 0.142135068774223 
1240	 0.142080023884773 
1241	 0.141980484127998 
1242	 0.141915023326874 
1243	 0.14186604321003 
1244	 0.141826316714287 
1245	 0.141800433397293 
1246	 0.141761407256126 
1247	 0.1417196393013 
1248	 0.141684845089912 
1249	 0.141681104898453 
1250	 0.141669481992722 
1251	 0.141671195626259 
1252	 0.141707226634026 
1253	 0.141673013567925 
1254	 0.14158122241497 
1255	 0.141520634293556 
1256	 0.141431584954262 
1257	 0.141351774334908 
1258	 0.141377314925194 
1259	 0.141367927193642 
1260	 0.14139312505722 
1261	 0.141345247626305 
1262	 0.141239643096924 
1263	 0.141184747219086 
1264	 0.141109302639961 
1265	 0.141073003411293 
1266	 0.141103819012642 
1267	 0.1410903185606 
1268	 0.141067564487457 
1269	 0.141029760241508 
1270	 0.140954121947289 
1271	 0.140932276844978 
1272	 0.140916407108307 
1273	 0.140855729579926 
1274	 0.140842020511627 
1275	 0.140805825591087 
1276	 0.140732437372208 
1277	 0.140691831707954 
1278	 0.140643745660782 
1279	 0.140591785311699 
1280	 0.1405418664217 
1281	 0.140493407845497 
1282	 0.140452474355698 
1283	 0.140427649021149 
1284	 0.140370339155197 
1285	 0.140290856361389 
1286	 0.140229806303978 
1287	 0.140154004096985 
1288	 0.140090793371201 
1289	 0.140043750405312 
1290	 0.140013918280602 
1291	 0.140008702874184 
1292	 0.139963626861572 
1293	 0.13991242647171 
1294	 0.139871165156364 
1295	 0.139809370040894 
1296	 0.139751106500626 
1297	 0.139698654413223 
1298	 0.13963907957077 
1299	 0.139616534113884 
1300	 0.139581009745598 
1301	 0.139537766575813 
1302	 0.139572933316231 
1303	 0.139548078179359 
1304	 0.139466047286987 
1305	 0.139417514204979 
1306	 0.139377415180206 
1307	 0.139318734407425 
1308	 0.139258652925491 
1309	 0.139214813709259 
1310	 0.139168307185173 
1311	 0.139127507805824 
1312	 0.13910299539566 
1313	 0.139060065150261 
1314	 0.139000982046127 
1315	 0.138957157731056 
1316	 0.138911187648773 
1317	 0.138886660337448 
1318	 0.138847008347511 
1319	 0.138775393366814 
1320	 0.138747692108154 
1321	 0.138715580105782 
1322	 0.13866850733757 
1323	 0.138656005263329 
1324	 0.138591274619102 
1325	 0.138482183218002 
1326	 0.138434186577797 
1327	 0.138419359922409 
1328	 0.138388648629189 
1329	 0.138394176959991 
1330	 0.138352960348129 
1331	 0.138256564736366 
1332	 0.138208761811256 
1333	 0.138173267245293 
1334	 0.138136237859726 
1335	 0.138126835227013 
1336	 0.138101994991302 
1337	 0.138062939047813 
1338	 0.138027101755142 
1339	 0.137990146875381 
1340	 0.137959897518158 
1341	 0.137920215725899 
1342	 0.137900784611702 
1343	 0.137905552983284 
1344	 0.137896597385406 
1345	 0.137871012091637 
1346	 0.137829765677452 
1347	 0.13778230547905 
1348	 0.137761846184731 
1349	 0.137774899601936 
1350	 0.137761488556862 
1351	 0.137720122933388 
1352	 0.137661173939705 
1353	 0.137595355510712 
1354	 0.137490153312683 
1355	 0.137431904673576 
1356	 0.137384653091431 
1357	 0.137326046824455 
1358	 0.137293890118599 
1359	 0.137236058712006 
1360	 0.137152820825577 
1361	 0.137092739343643 
1362	 0.137041240930557 
1363	 0.136968225240707 
1364	 0.136898696422577 
1365	 0.136827170848846 
1366	 0.136738479137421 
1367	 0.136652231216431 
1368	 0.136577904224396 
1369	 0.136480718851089 
1370	 0.13636688888073 
1371	 0.136291474103928 
1372	 0.136212483048439 
1373	 0.136103898286819 
1374	 0.136025696992874 
1375	 0.135934323072433 
1376	 0.135805353522301 
1377	 0.135692268610001 
1378	 0.135572984814644 
1379	 0.135417297482491 
1380	 0.135264948010445 
1381	 0.135138496756554 
1382	 0.134936138987541 
1383	 0.134711980819702 
1384	 0.134423434734344 
1385	 0.134113475680351 
1386	 0.133697852492332 
1387	 0.133253619074821 
1388	 0.132670074701309 
1389	 0.131986871361732 
1390	 0.131189703941345 
1391	 0.130274459719658 
1392	 0.129272043704987 
1393	 0.128123298287392 
1394	 0.126976847648621 
1395	 0.125721409916878 
1396	 0.12449174374342 
1397	 0.123202301561832 
1398	 0.121982753276825 
1399	 0.120756506919861 
1400	 0.11960219591856 
1401	 0.118526265025139 
1402	 0.117547258734703 
1403	 0.116679094731808 
1404	 0.115868858993053 
1405	 0.115134887397289 
1406	 0.114490322768688 
1407	 0.113892488181591 
1408	 0.113397493958473 
1409	 0.113036140799522 
1410	 0.112785652279854 
1411	 0.112719051539898 
1412	 0.11276737600565 
1413	 0.113061629235744 
1414	 0.113545022904873 
1415	 0.114217862486839 
1416	 0.115145392715931 
1417	 0.116130478680134 
1418	 0.117333821952343 
1419	 0.11847760528326 
1420	 0.119746133685112 
1421	 0.120924808084965 
1422	 0.122130334377289 
1423	 0.123229950666428 
1424	 0.124303303658962 
1425	 0.12525600194931 
1426	 0.126122772693634 
1427	 0.126896724104881 
1428	 0.12755586206913 
1429	 0.128174751996994 
1430	 0.128713205456734 
1431	 0.129198402166367 
1432	 0.129617869853973 
1433	 0.129992097616196 
1434	 0.130295589566231 
1435	 0.13057553768158 
1436	 0.130797624588013 
1437	 0.13099080324173 
1438	 0.131177470088005 
1439	 0.131293997168541 
1440	 0.131376504898071 
1441	 0.131482347846031 
1442	 0.131546348333359 
1443	 0.131570488214493 
1444	 0.131633207201958 
1445	 0.131688863039017 
1446	 0.131710544228554 
1447	 0.131712079048157 
1448	 0.131717562675476 
1449	 0.131693691015244 
1450	 0.131686478853226 
1451	 0.131694748997688 
1452	 0.131691917777061 
1453	 0.131676226854324 
1454	 0.131671294569969 
1455	 0.131675153970718 
1456	 0.131662726402283 
1457	 0.131646662950516 
1458	 0.131629928946495 
1459	 0.131601497530937 
1460	 0.131575837731361 
1461	 0.131550863385201 
1462	 0.13153238594532 
1463	 0.131514564156532 
1464	 0.131497159600258 
1465	 0.131483986973763 
1466	 0.131473571062088 
1467	 0.131470292806625 
1468	 0.131452724337578 
1469	 0.131424069404602 
1470	 0.131410464644432 
1471	 0.131393954157829 
1472	 0.131376758217812 
1473	 0.131385654211044 
1474	 0.131367176771164 
1475	 0.131316274404526 
1476	 0.131293430924416 
1477	 0.131229445338249 
1478	 0.131196334958076 
1479	 0.13119900226593 
1480	 0.131140753626823 
1481	 0.131125956773758 
1482	 0.131139755249023 
1483	 0.131107673048973 
1484	 0.131092861294746 
1485	 0.13108241558075 
1486	 0.131045624613762 
1487	 0.13101390004158 
1488	 0.131001248955727 
1489	 0.130967050790787 
1490	 0.13090743124485 
1491	 0.130883544683456 
1492	 0.130866780877113 
1493	 0.130839824676514 
1494	 0.130828157067299 
1495	 0.130797445774078 
1496	 0.130749017000198 
1497	 0.130699276924133 
1498	 0.130633488297462 
1499	 0.130594596266747 
1500	 0.13055345416069 
1501	 0.130533427000046 
1502	 0.130570486187935 
1503	 0.130536571145058 
1504	 0.130464941263199 
1505	 0.130415871739388 
1506	 0.130326524376869 
1507	 0.130274280905724 
1508	 0.130277469754219 
1509	 0.130235001444817 
1510	 0.130162715911865 
1511	 0.130125865340233 
1512	 0.130092561244965 
1513	 0.130053579807281 
1514	 0.13002535700798 
1515	 0.130003675818443 
1516	 0.129993855953217 
1517	 0.12995807826519 
1518	 0.129913374781609 
1519	 0.129884213209152 
1520	 0.129830747842789 
1521	 0.129791721701622 
1522	 0.129808515310287 
1523	 0.129772186279297 
1524	 0.129692241549492 
1525	 0.129630193114281 
1526	 0.129533067345619 
1527	 0.129476279020309 
1528	 0.129462987184525 
1529	 0.129425823688507 
1530	 0.129399463534355 
1531	 0.129359766840935 
1532	 0.129296839237213 
1533	 0.129264563322067 
1534	 0.129215151071548 
1535	 0.129176005721092 
1536	 0.129180029034615 
1537	 0.129129976034164 
1538	 0.129062443971634 
1539	 0.129047393798828 
1540	 0.128998890519142 
1541	 0.128934979438782 
1542	 0.128932103514671 
1543	 0.128905743360519 
1544	 0.128837883472443 
1545	 0.12880665063858 
1546	 0.128770381212234 
1547	 0.128706723451614 
1548	 0.128661751747131 
1549	 0.128616720438004 
1550	 0.128568902611732 
1551	 0.128541007637978 
1552	 0.128537550568581 
1553	 0.128527745604515 
1554	 0.128496706485748 
1555	 0.128458335995674 
1556	 0.128415435552597 
1557	 0.128379061818123 
1558	 0.128345042467117 
1559	 0.12831112742424 
1560	 0.128237336874008 
1561	 0.12814973294735 
1562	 0.128107517957687 
1563	 0.128061756491661 
1564	 0.128058850765228 
1565	 0.128074795007706 
1566	 0.127997145056725 
1567	 0.127933353185654 
1568	 0.127897620201111 
1569	 0.127841874957085 
1570	 0.127824917435646 
1571	 0.127891138195992 
1572	 0.127861484885216 
1573	 0.127777472138405 
1574	 0.127743557095528 
1575	 0.127695024013519 
1576	 0.127655833959579 
1577	 0.12765084207058 
1578	 0.127635985612869 
1579	 0.127611666917801 
1580	 0.127572491765022 
1581	 0.12752491235733 
1582	 0.127510190010071 
1583	 0.127498522400856 
1584	 0.127467453479767 
1585	 0.127466976642609 
1586	 0.127434819936752 
1587	 0.127355694770813 
1588	 0.127311810851097 
1589	 0.12727165222168 
1590	 0.12725718319416 
1591	 0.127266228199005 
1592	 0.127243980765343 
1593	 0.127244308590889 
1594	 0.127210512757301 
1595	 0.127113074064255 
1596	 0.127080485224724 
1597	 0.127073869109154 
1598	 0.127062305808067 
1599	 0.12710776925087 
1600	 0.127081587910652 
1601	 0.126983419060707 
1602	 0.12694901227951 
1603	 0.126915007829666 
1604	 0.126884117722511 
1605	 0.126915022730827 
1606	 0.126880064606667 
1607	 0.126790419220924 
1608	 0.12673307955265 
1609	 0.126658454537392 
1610	 0.126617193222046 
1611	 0.126594692468643 
1612	 0.126580476760864 
1613	 0.126593574881554 
1614	 0.126594826579094 
1615	 0.126617386937141 
1616	 0.12659415602684 
1617	 0.126533567905426 
1618	 0.126489728689194 
1619	 0.126429855823517 
1620	 0.126394838094711 
1621	 0.126383766531944 
1622	 0.126348271965981 
1623	 0.126299828290939 
1624	 0.126251190900803 
1625	 0.126188039779663 
1626	 0.126167595386505 
1627	 0.126179620623589 
1628	 0.126172706484795 
1629	 0.126175716519356 
1630	 0.126145660877228 
1631	 0.126100286841393 
1632	 0.126041978597641 
1633	 0.125946998596191 
1634	 0.125928327441216 
1635	 0.125922545790672 
1636	 0.125904351472855 
1637	 0.125959038734436 
1638	 0.125936821103096 
1639	 0.125846937298775 
1640	 0.125812888145447 
1641	 0.125774145126343 
1642	 0.125735387206078 
1643	 0.125725954771042 
1644	 0.125695362687111 
1645	 0.125644460320473 
1646	 0.125607520341873 
1647	 0.125573471188545 
1648	 0.125542968511581 
1649	 0.125528424978256 
1650	 0.125501498579979 
1651	 0.125457346439362 
1652	 0.125432968139648 
1653	 0.125417217612267 
1654	 0.125382274389267 
1655	 0.125346973538399 
1656	 0.125318244099617 
1657	 0.125276014208794 
1658	 0.125244423747063 
1659	 0.125244706869125 
1660	 0.125218763947487 
1661	 0.125162988901138 
1662	 0.125134631991386 
1663	 0.125102490186691 
1664	 0.125079825520515 
1665	 0.125095412135124 
1666	 0.125040829181671 
1667	 0.125005781650543 
1668	 0.125000059604645 
1669	 0.124980486929417 
1670	 0.124939531087875 
1671	 0.124899789690971 
1672	 0.124875977635384 
1673	 0.124850682914257 
1674	 0.12486470490694 
1675	 0.124873235821724 
1676	 0.124823518097401 
1677	 0.124727033078671 
1678	 0.12463290989399 
1679	 0.12459771335125 
1680	 0.124557837843895 
1681	 0.124562822282314 
1682	 0.124608278274536 
1683	 0.124577417969704 
1684	 0.124574296176434 
1685	 0.124587692320347 
1686	 0.124513044953346 
1687	 0.124453894793987 
1688	 0.124431118369102 
1689	 0.12437779456377 
1690	 0.124373681843281 
1691	 0.124400854110718 
1692	 0.124366857111454 
1693	 0.124333053827286 
1694	 0.124314203858376 
1695	 0.124285563826561 
1696	 0.12425758689642 
1697	 0.124223366379738 
1698	 0.124211899936199 
1699	 0.124183781445026 
1700	 0.124137535691261 
1701	 0.124119333922863 
1702	 0.124035537242889 
1703	 0.123950965702534 
1704	 0.123968057334423 
1705	 0.123978674411774 
1706	 0.123957693576813 
1707	 0.12394792586565 
1708	 0.123905830085278 
1709	 0.123801611363888 
1710	 0.123754113912582 
1711	 0.123749442398548 
1712	 0.123690202832222 
1713	 0.123693630099297 
1714	 0.123705334961414 
1715	 0.123685233294964 
1716	 0.123721055686474 
1717	 0.123677492141724 
1718	 0.123605079948902 
1719	 0.123578161001205 
1720	 0.123494908213615 
1721	 0.123447142541409 
1722	 0.123426392674446 
1723	 0.123372420668602 
1724	 0.12335667014122 
1725	 0.123340003192425 
1726	 0.123320296406746 
1727	 0.12329463660717 
1728	 0.12322473526001 
1729	 0.123196221888065 
1730	 0.123207308351994 
1731	 0.123178996145725 
1732	 0.123168095946312 
1733	 0.123120665550232 
1734	 0.123011499643326 
1735	 0.122947946190834 
1736	 0.122874550521374 
1737	 0.122838772833347 
1738	 0.122827984392643 
1739	 0.122773706912994 
1740	 0.122708052396774 
1741	 0.122576363384724 
1742	 0.12246049195528 
1743	 0.122440658509731 
1744	 0.122447080910206 
1745	 0.122460678219795 
1746	 0.122493661940098 
1747	 0.122493647038937 
1748	 0.122447177767754 
1749	 0.12243590503931 
1750	 0.122430428862572 
1751	 0.122378580272198 
1752	 0.122315771877766 
1753	 0.122273318469524 
1754	 0.122220396995544 
1755	 0.122162170708179 
1756	 0.122108891606331 
1757	 0.122032836079597 
1758	 0.12195498496294 
1759	 0.121870085597038 
1760	 0.121810995042324 
1761	 0.121785096824169 
1762	 0.121737249195576 
1763	 0.12170947343111 
1764	 0.121688574552536 
1765	 0.121625795960426 
1766	 0.121589578688145 
1767	 0.121584482491016 
1768	 0.121559411287308 
1769	 0.121534653007984 
1770	 0.121521733701229 
1771	 0.121484875679016 
1772	 0.121450118720531 
1773	 0.121452994644642 
1774	 0.121424593031406 
1775	 0.121402084827423 
1776	 0.121385924518108 
1777	 0.121312484145164 
1778	 0.121305301785469 
1779	 0.121241450309753 
1780	 0.121234834194183 
1781	 0.121245428919792 
1782	 0.121189080178738 
1783	 0.12117325514555 
1784	 0.121159590780735 
1785	 0.121127031743526 
1786	 0.121130682528019 
1787	 0.121119052171707 
1788	 0.121085494756699 
1789	 0.121035434305668 
1790	 0.120959378778934 
1791	 0.120891824364662 
1792	 0.120881885290146 
1793	 0.120884262025356 
1794	 0.120878219604492 
1795	 0.120883025228977 
1796	 0.12082364410162 
1797	 0.120748907327652 
1798	 0.120741784572601 
1799	 0.120705679059029 
1800	 0.120637461543083 
1801	 0.120604567229748 
1802	 0.120547659695148 
1803	 0.120478317141533 
1804	 0.120432443916798 
1805	 0.120370127260685 
1806	 0.120289541780949 
1807	 0.120211653411388 
1808	 0.120149537920952 
1809	 0.120102174580097 
1810	 0.120097696781158 
1811	 0.120140694081783 
1812	 0.120142169296741 
1813	 0.120174698531628 
1814	 0.120094530284405 
1815	 0.120047643780708 
1816	 0.120031721889973 
1817	 0.119958214461803 
1818	 0.119890533387661 
1819	 0.119864955544472 
1820	 0.119864150881767 
1821	 0.119820326566696 
1822	 0.119795419275761 
1823	 0.119816236197948 
1824	 0.119770057499409 
1825	 0.119704574346542 
1826	 0.11966410279274 
1827	 0.11959557980299 
1828	 0.119512088596821 
1829	 0.119468227028847 
1830	 0.119434967637062 
1831	 0.119365409016609 
1832	 0.119326122105122 
1833	 0.119253903627396 
1834	 0.119113489985466 
1835	 0.119046971201897 
1836	 0.119000777602196 
1837	 0.118947625160217 
1838	 0.118892006576061 
1839	 0.118919156491756 
1840	 0.118937261402607 
1841	 0.118894249200821 
1842	 0.118911609053612 
1843	 0.118881359696388 
1844	 0.118814766407013 
1845	 0.118646301329136 
1846	 0.118624061346054 
1847	 0.118662714958191 
1848	 0.118666492402554 
1849	 0.118642330169678 
1850	 0.118607275187969 
1851	 0.118494927883148 
1852	 0.118336066603661 
1853	 0.118338145315647 
1854	 0.118431001901627 
1855	 0.118438743054867 
1856	 0.11844527721405 
1857	 0.118448197841644 
1858	 0.118442580103874 
1859	 0.118336625397205 
1860	 0.118309177458286 
1861	 0.118316508829594 
1862	 0.118247374892235 
1863	 0.118152499198914 
1864	 0.118036858737469 
1865	 0.11797796189785 
1866	 0.117913253605366 
1867	 0.117856852710247 
1868	 0.117807172238827 
1869	 0.117810875177383 
1870	 0.117791496217251 
1871	 0.117720201611519 
1872	 0.117716200649738 
1873	 0.117746658623219 
1874	 0.117645472288132 
1875	 0.117542624473572 
1876	 0.117479264736176 
1877	 0.11737846583128 
1878	 0.117220111191273 
1879	 0.117090322077274 
1880	 0.116986900568008 
1881	 0.116844899952412 
1882	 0.11673154681921 
1883	 0.116653472185135 
1884	 0.116551570594311 
1885	 0.116478122770786 
1886	 0.116362772881985 
1887	 0.116170555353165 
1888	 0.116010755300522 
1889	 0.1158532127738 
1890	 0.115673080086708 
1891	 0.11551009863615 
1892	 0.115368559956551 
1893	 0.115188106894493 
1894	 0.115030393004417 
1895	 0.114874988794327 
1896	 0.11473872512579 
1897	 0.114589773118496 
1898	 0.114395491778851 
1899	 0.114192172884941 
1900	 0.113953851163387 
1901	 0.113702468574047 
1902	 0.113496795296669 
1903	 0.113298371434212 
1904	 0.113126903772354 
1905	 0.113039508461952 
1906	 0.11296871304512 
1907	 0.112901791930199 
1908	 0.112882934510708 
1909	 0.112858831882477 
1910	 0.112795427441597 
1911	 0.112693592905998 
1912	 0.112614646553993 
1913	 0.112580008804798 
1914	 0.112531714141369 
1915	 0.11249516159296 
1916	 0.112501412630081 
1917	 0.112466119229794 
1918	 0.112352848052979 
1919	 0.112295880913734 
1920	 0.112266220152378 
1921	 0.112192422151566 
1922	 0.112150214612484 
1923	 0.112139321863651 
1924	 0.112129077315331 
1925	 0.112130030989647 
1926	 0.112150736153126 
1927	 0.112187594175339 
1928	 0.112242080271244 
1929	 0.112260147929192 
1930	 0.112280309200287 
1931	 0.112267084419727 
1932	 0.11219360679388 
1933	 0.112179070711136 
1934	 0.112181760370731 
1935	 0.112172894179821 
1936	 0.112122736871243 
1937	 0.112149775028229 
1938	 0.112116895616055 
1939	 0.112009853124619 
1940	 0.112025380134583 
1941	 0.112026169896126 
1942	 0.111932553350925 
1943	 0.11188505589962 
1944	 0.111844636499882 
1945	 0.111770242452621 
1946	 0.11173377931118 
1947	 0.111729949712753 
1948	 0.111744873225689 
1949	 0.111787378787994 
1950	 0.111793681979179 
1951	 0.111768275499344 
1952	 0.111819185316563 
1953	 0.111868776381016 
1954	 0.111872300505638 
1955	 0.111891984939575 
1956	 0.111921437084675 
1957	 0.111900970339775 
1958	 0.111770771443844 
1959	 0.111721597611904 
1960	 0.111691430211067 
1961	 0.111695125699043 
1962	 0.111656598746777 
1963	 0.1116643846035 
1964	 0.111733883619308 
1965	 0.111726596951485 
1966	 0.111697822809219 
1967	 0.111738160252571 
1968	 0.111735694110394 
1969	 0.111676283180714 
1970	 0.111638873815536 
1971	 0.111591622233391 
1972	 0.111583478748798 
1973	 0.111587546765804 
1974	 0.111602634191513 
1975	 0.111668825149536 
1976	 0.111723117530346 
1977	 0.111639015376568 
1978	 0.111553877592087 
1979	 0.11159460246563 
1980	 0.11156951636076 
1981	 0.11157564073801 
1982	 0.11172166466713 
1983	 0.111765339970589 
1984	 0.111703485250473 
1985	 0.111705891788006 
1986	 0.111741870641708 
1987	 0.111722521483898 
1988	 0.111768163740635 
1989	 0.111752763390541 
1990	 0.111711710691452 
1991	 0.111763671040535 
1992	 0.11174176633358 
1993	 0.111716650426388 
1994	 0.111714459955692 
1995	 0.111699983477592 
1996	 0.111719116568565 
1997	 0.111806161701679 
1998	 0.11183363199234 
1999	 0.111851461231709 
2000	 0.111882522702217 
2001	 0.111896470189095 
2002	 0.111924104392529 
2003	 0.111936531960964 
2004	 0.111952573060989 
2005	 0.112040124833584 
2006	 0.112059712409973 
2007	 0.112055033445358 
2008	 0.112053841352463 
2009	 0.112091332674026 
2010	 0.112063951790333 
2011	 0.112093918025494 
2012	 0.112196333706379 
2013	 0.112335093319416 
2014	 0.112378038465977 
2015	 0.112374067306519 
2016	 0.112417235970497 
2017	 0.112429678440094 
2018	 0.112438455224037 
2019	 0.112529926002026 
2020	 0.112631939351559 
2021	 0.112799167633057 
2022	 0.112873710691929 
2023	 0.112960919737816 
2024	 0.112992763519287 
2025	 0.112889654934406 
2026	 0.112893529236317 
2027	 0.112934932112694 
2028	 0.112997829914093 
2029	 0.113003522157669 
2030	 0.11299542337656 
2031	 0.113073967397213 
2032	 0.113106444478035 
2033	 0.113158836960793 
2034	 0.113313607871532 
2035	 0.113359741866589 
2036	 0.113297410309315 
2037	 0.113287307322025 
2038	 0.113261483609676 
2039	 0.113266050815582 
2040	 0.113275773823261 
2041	 0.113309539854527 
2042	 0.113392509520054 
2043	 0.11344488710165 
2044	 0.113457754254341 
2045	 0.11350554972887 
2046	 0.113504141569138 
2047	 0.11344551295042 
2048	 0.113467372953892 
2049	 0.113536216318607 
2050	 0.113541156053543 
2051	 0.113584727048874 
2052	 0.113601312041283 
2053	 0.113509312272072 
2054	 0.113518454134464 
2055	 0.113610714673996 
2056	 0.113617576658726 
2057	 0.113570094108582 
2058	 0.113662093877792 
2059	 0.113663628697395 
2060	 0.113608166575432 
2061	 0.113598115742207 
2062	 0.113549098372459 
2063	 0.113504730165005 
2064	 0.113558910787106 
2065	 0.113562494516373 
2066	 0.113598428666592 
2067	 0.113583348691463 
2068	 0.113477170467377 
2069	 0.113462306559086 
2070	 0.113520406186581 
2071	 0.113536231219769 
2072	 0.113587066531181 
2073	 0.113594233989716 
2074	 0.113561809062958 
2075	 0.113469608128071 
2076	 0.113417223095894 
2077	 0.113382488489151 
2078	 0.113336302340031 
2079	 0.11329810321331 
2080	 0.11324816942215 
2081	 0.113168239593506 
2082	 0.113145560026169 
2083	 0.113163411617279 
2084	 0.113132007420063 
2085	 0.113135486841202 
2086	 0.113091051578522 
2087	 0.112971141934395 
2088	 0.112884238362312 
2089	 0.112802073359489 
2090	 0.11269611120224 
2091	 0.112656481564045 
2092	 0.112608671188354 
2093	 0.112513177096844 
2094	 0.112454138696194 
2095	 0.112349525094032 
2096	 0.112208090722561 
2097	 0.112089663743973 
2098	 0.11197742074728 
2099	 0.111887536942959 
2100	 0.11178857833147 
2101	 0.111732698976994 
2102	 0.111796639859676 
2103	 0.111703887581825 
2104	 0.11148975789547 
2105	 0.111366346478462 
2106	 0.1112055554986 
2107	 0.11108535528183 
2108	 0.110948391258717 
2109	 0.11089850962162 
2110	 0.110899068415165 
2111	 0.110760442912579 
2112	 0.110621318221092 
2113	 0.110641099512577 
2114	 0.110598742961884 
2115	 0.110441796481609 
2116	 0.110426768660545 
2117	 0.110591903328896 
2118	 0.110551171004772 
2119	 0.110391557216644 
2120	 0.11039587110281 
2121	 0.110397905111313 
2122	 0.110388651490211 
2123	 0.110511153936386 
2124	 0.110554926097393 
2125	 0.110472097992897 
2126	 0.110493756830692 
2127	 0.110538884997368 
2128	 0.110535606741905 
2129	 0.11048761755228 
2130	 0.110321499407291 
2131	 0.110186651349068 
2132	 0.110132291913033 
2133	 0.110111445188522 
2134	 0.11021213978529 
2135	 0.110205076634884 
2136	 0.110176049172878 
2137	 0.110145568847656 
2138	 0.110100023448467 
2139	 0.110012300312519 
2140	 0.109925255179405 
2141	 0.109782449901104 
2142	 0.109512276947498 
2143	 0.10932619869709 
2144	 0.109103851020336 
2145	 0.109037719666958 
2146	 0.108961395919323 
2147	 0.108850665390491 
2148	 0.108726151287556 
2149	 0.108433470129967 
2150	 0.108121573925018 
2151	 0.107903264462948 
2152	 0.107706524431705 
2153	 0.107598051428795 
2154	 0.107357911765575 
2155	 0.107126079499722 
2156	 0.106813810765743 
2157	 0.106362447142601 
2158	 0.105969503521919 
2159	 0.105554416775703 
2160	 0.105153821408749 
2161	 0.104833692312241 
2162	 0.104388736188412 
2163	 0.103904642164707 
2164	 0.103368364274502 
2165	 0.102749027311802 
2166	 0.102091513574123 
2167	 0.101528562605381 
2168	 0.100967071950436 
2169	 0.10037425160408 
2170	 0.099776916205883 
2171	 9.90643426775932E-02 
2172	 9.83001068234444E-02 
2173	 9.75947827100754E-02 
2174	 9.69177633523941E-02 
2175	 9.61425304412842E-02 
2176	 9.53764840960503E-02 
2177	 9.45255607366562E-02 
2178	 9.35401767492294E-02 
2179	 9.26282033324242E-02 
2180	 9.17442664504051E-02 
2181	 9.07922685146332E-02 
2182	 8.97461995482445E-02 
2183	 8.87933075428009E-02 
2184	 8.77727419137955E-02 
2185	 8.68904963135719E-02 
2186	 8.61683562397957E-02 
2187	 8.54620262980461E-02 
2188	 8.46170261502266E-02 
2189	 8.38639140129089E-02 
2190	 8.31248462200165E-02 
2191	 0.082358792424202 
2192	 8.17625299096107E-02 
2193	 8.12358483672142E-02 
2194	 8.06779190897942E-02 
2195	 8.02358314394951E-02 
2196	 7.99229592084885E-02 
2197	 7.96989873051643E-02 
2198	 7.95713067054749E-02 
2199	 7.96751603484154E-02 
2200	 0.079656295478344 
2201	 7.96194672584534E-02 
2202	 7.96646997332573E-02 
2203	 7.96283856034279E-02 
2204	 7.98259302973747E-02 
2205	 8.02529826760292E-02 
2206	 8.06273967027664E-02 
2207	 8.11142176389694E-02 
2208	 8.15727189183235E-02 
2209	 8.19791629910469E-02 
2210	 8.24694484472275E-02 
2211	 8.30438807606697E-02 
2212	 8.36315155029297E-02 
2213	 0.084156796336174 
2214	 8.46356004476547E-02 
2215	 8.51476341485977E-02 
2216	 8.57117623090744E-02 
2217	 0.08633653819561 
2218	 8.70535969734192E-02 
2219	 8.77424851059914E-02 
2220	 8.82806405425072E-02 
2221	 8.87916833162308E-02 
2222	 8.94062742590904E-02 
2223	 8.99888649582863E-02 
2224	 9.06013324856758E-02 
2225	 9.11099538207054E-02 
2226	 9.16526392102242E-02 
2227	 9.19682085514069E-02 
2228	 9.20215547084808E-02 
2229	 9.23027396202087E-02 
2230	 0.092636838555336 
2231	 9.28427129983902E-02 
2232	 9.30053740739822E-02 
2233	 9.32427272200584E-02 
2234	 9.34299677610397E-02 
2235	 9.36054214835167E-02 
2236	 9.38862487673759E-02 
2237	 9.41692590713501E-02 
2238	 9.44520086050034E-02 
2239	 9.45437327027321E-02 
2240	 0.094763807952404 
2241	 0.094990998506546 
2242	 9.49002876877785E-02 
2243	 0.094859279692173 
2244	 0.095027782022953 
2245	 9.51460301876068E-02 
2246	 9.52236652374268E-02 
2247	 9.53592136502266E-02 
2248	 9.54455956816673E-02 
2249	 9.54103767871857E-02 
2250	 0.095422089099884 
2251	 9.56270769238472E-02 
2252	 9.57931503653526E-02 
2253	 9.59146469831467E-02 
2254	 9.60712507367134E-02 
2255	 0.096304751932621 
2256	 9.65359285473824E-02 
2257	 9.67916622757912E-02 
2258	 9.69744697213173E-02 
2259	 9.71701890230179E-02 
2260	 9.73509550094604E-02 
2261	 9.74259376525879E-02 
2262	 9.75555330514908E-02 
2263	 9.77730974555016E-02 
2264	 9.79115441441536E-02 
2265	 9.80036556720734E-02 
2266	 9.80877801775932E-02 
2267	 9.81085374951363E-02 
2268	 9.81879532337189E-02 
2269	 9.83224138617516E-02 
2270	 9.83816981315613E-02 
2271	 9.84509512782097E-02 
2272	 9.84768345952034E-02 
2273	 0.098465122282505 
2274	 9.84684824943542E-02 
2275	 9.84868779778481E-02 
2276	 9.86419320106506E-02 
2277	 9.87484157085419E-02 
2278	 9.85894575715065E-02 
2279	 9.84547510743141E-02 
2280	 9.83393713831902E-02 
2281	 9.81144458055496E-02 
2282	 9.79570746421814E-02 
2283	 9.78686213493347E-02 
2284	 9.77908670902252E-02 
2285	 9.77657213807106E-02 
2286	 9.76539850234985E-02 
2287	 0.097570464015007 
2288	 9.74887013435364E-02 
2289	 9.72965359687805E-02 
2290	 9.72386077046394E-02 
2291	 9.70366075634956E-02 
2292	 9.66290906071663E-02 
2293	 9.64632332324982E-02 
2294	 9.64658856391907E-02 
2295	 9.62394699454308E-02 
2296	 9.59286987781525E-02 
2297	 9.57963317632675E-02 
2298	 9.56309512257576E-02 
2299	 9.53905954957008E-02 
2300	 9.53594222664833E-02 
2301	 9.52061489224434E-02 
2302	 9.47870686650276E-02 
2303	 9.44708660244942E-02 
2304	 9.42710041999817E-02 
2305	 9.40203592181206E-02 
2306	 9.37066599726677E-02 
2307	 0.093383900821209 
2308	 0.093091107904911 
2309	 9.27479490637779E-02 
2310	 9.22693014144897E-02 
2311	 9.19257029891014E-02 
2312	 0.091690257191658 
2313	 9.13736969232559E-02 
2314	 9.11199003458023E-02 
2315	 9.08116772770882E-02 
2316	 9.04453322291374E-02 
2317	 9.00046080350876E-02 
2318	 8.96416157484055E-02 
2319	 8.92164260149002E-02 
2320	 8.87512341141701E-02 
2321	 8.83810445666313E-02 
2322	 0.087933361530304 
2323	 8.74058678746223E-02 
2324	 8.69965106248856E-02 
2325	 8.65005478262901E-02 
2326	 8.61398279666901E-02 
2327	 8.59882533550262E-02 
2328	 8.56205299496651E-02 
2329	 8.52840766310692E-02 
2330	 8.51165652275085E-02 
2331	 8.47166180610657E-02 
2332	 8.43110680580139E-02 
2333	 8.41183513402939E-02 
2334	 8.38742256164551E-02 
2335	 8.35692435503006E-02 
2336	 8.31809788942337E-02 
2337	 0.082934781908989 
2338	 8.27470198273659E-02 
2339	 8.23208168148994E-02 
2340	 8.20531696081162E-02 
2341	 8.19627568125725E-02 
2342	 0.08179921656847 
2343	 8.17839726805687E-02 
2344	 8.20095837116241E-02 
2345	 8.21297168731689E-02 
2346	 8.19791555404663E-02 
2347	 8.19354206323624E-02 
2348	 8.19983705878258E-02 
2349	 8.18259119987488E-02 
2350	 8.17385092377663E-02 
2351	 8.17515999078751E-02 
2352	 8.17469954490662E-02 
2353	 8.16245898604393E-02 
2354	 0.081757441163063 
2355	 8.21008309721947E-02 
2356	 0.082379087805748 
2357	 8.27226340770721E-02 
2358	 8.29643160104752E-02 
2359	 8.33108425140381E-02 
2360	 8.33021402359009E-02 
2361	 8.29962193965912E-02 
2362	 8.29601809382439E-02 
2363	 8.27003493905067E-02 
2364	 8.27792063355446E-02 
2365	 0.083333931863308 
2366	 8.34900215268135E-02 
2367	 8.35008323192596E-02 
2368	 8.36304575204849E-02 
2369	 8.37536454200745E-02 
2370	 8.36876183748245E-02 
2371	 8.34853872656822E-02 
2372	 8.36311131715775E-02 
2373	 8.38408321142197E-02 
2374	 8.38965624570847E-02 
2375	 8.41588526964188E-02 
2376	 8.42894688248634E-02 
2377	 8.41772481799126E-02 
2378	 8.41158255934715E-02 
2379	 8.42178538441658E-02 
2380	 8.42035934329033E-02 
2381	 8.37286338210106E-02 
2382	 8.37299823760986E-02 
2383	 0.084214486181736 
2384	 8.43480154871941E-02 
2385	 8.46213400363922E-02 
2386	 8.46540182828903E-02 
2387	 8.43657702207565E-02 
2388	 8.40564221143723E-02 
2389	 8.34567323327065E-02 
2390	 8.33154395222664E-02 
2391	 8.33786949515343E-02 
2392	 8.32845866680145E-02 
2393	 8.34248438477516E-02 
2394	 8.34565237164497E-02 
2395	 8.32138061523438E-02 
2396	 8.31505432724953E-02 
2397	 8.33307504653931E-02 
2398	 8.34119468927383E-02 
2399	 0.083440437912941 
2400	 0.083349347114563 
2401	 8.32272469997406E-02 
2402	 8.30435901880264E-02 
2403	 8.27126652002335E-02 
2404	 8.26044008135796E-02 
2405	 8.25477838516235E-02 
2406	 8.25007185339928E-02 
2407	 8.26424285769463E-02 
2408	 8.23723375797272E-02 
2409	 8.19216966629028E-02 
2410	 8.15879851579666E-02 
2411	 8.08375552296638E-02 
2412	 8.07241350412369E-02 
2413	 0.081151969730854 
2414	 8.11895877122879E-02 
2415	 8.14777985215187E-02 
2416	 8.12859386205673E-02 
2417	 8.05370360612869E-02 
2418	 0.080223523080349 
2419	 7.99460485577583E-02 
2420	 7.97334238886833E-02 
2421	 7.97652527689934E-02 
2422	 7.95303583145142E-02 
2423	 7.91430324316025E-02 
2424	 7.88320749998093E-02 
2425	 7.84135311841965E-02 
2426	 7.81779512763023E-02 
2427	 7.81794935464859E-02 
2428	 7.77628198266029E-02 
2429	 7.70593583583832E-02 
2430	 7.68638849258423E-02 
2431	 7.67070949077606E-02 
2432	 7.64365643262863E-02 
2433	 7.65597969293594E-02 
2434	 7.64936953783035E-02 
2435	 7.58821666240692E-02 
2436	 7.58558809757233E-02 
2437	 7.63880088925362E-02 
2438	 7.65390992164612E-02 
2439	 7.68242403864861E-02 
2440	 7.66904428601265E-02 
2441	 7.60706514120102E-02 
2442	 7.59973302483559E-02 
2443	 7.57446438074112E-02 
2444	 0.076005682349205 
2445	 7.70762860774994E-02 
2446	 7.73656442761421E-02 
2447	 7.74775072932243E-02 
2448	 0.077692061662674 
2449	 7.76219442486763E-02 
2450	 7.76337310671806E-02 
2451	 7.79853537678719E-02 
2452	 7.76024758815765E-02 
2453	 7.65456557273865E-02 
2454	 7.68747627735138E-02 
2455	 7.65995979309082E-02 
2456	 7.67079964280128E-02 
2457	 7.71092548966408E-02 
2458	 7.72200226783752E-02 
2459	 7.72241726517677E-02 
2460	 7.74176344275475E-02 
2461	 0.077703945338726 
2462	 7.82241821289063E-02 
2463	 7.84246399998665E-02 
2464	 7.85489231348038E-02 
2465	 7.86126405000687E-02 
2466	 7.77029246091843E-02 
2467	 7.74315670132637E-02 
2468	 7.78781101107597E-02 
2469	 7.80172944068909E-02 
2470	 7.84067735075951E-02 
2471	 7.85114765167236E-02 
2472	 7.79174864292145E-02 
2473	 7.80028477311134E-02 
2474	 7.85325244069099E-02 
2475	 7.87904411554337E-02 
2476	 7.94705897569656E-02 
2477	 7.97980651259422E-02 
2478	 7.97096788883209E-02 
2479	 7.95800089836121E-02 
2480	 7.92457684874535E-02 
2481	 7.91102722287178E-02 
2482	 0.078664630651474 
2483	 7.87213668227196E-02 
2484	 7.94903934001923E-02 
2485	 7.97442570328712E-02 
2486	 8.01197290420532E-02 
2487	 8.01248028874397E-02 
2488	 7.93395414948463E-02 
2489	 7.93297663331032E-02 
2490	 7.97411277890205E-02 
2491	 7.97562524676323E-02 
2492	 7.99641311168671E-02 
2493	 0.080092266201973 
2494	 7.99064785242081E-02 
2495	 7.97128826379776E-02 
2496	 0.079584427177906 
2497	 7.95260965824127E-02 
2498	 7.92087838053703E-02 
2499	 7.91083723306656E-02 
2500	 7.93638676404953E-02 
