
Text conversion of header file \A_MEDIDAS\PROJETOS\BRASIL\BLOCO GAVIAO\JACOBINA\CANIF27\sco\CANIF27_033.20_00002.asd.ref
 -------------------------------------------------------------
                                                                                                                                                            
The instrument number was  16586/1
New ASD spectrum file: Program version = 6.00 file version = 1.00
Spectrum saved: 10/16/2018 at 10:22:54
VNIR integration time : 34
VNIR channel 1 wavelength = 350 wavelength step = 1
There were 50 samples per data value
xmin = 350 xmax= 2500
ymin= 0 ymax= 1.25
The instrument digitizes spectral values to 16 bits
SWIR1 gain was 203 offset was 2094
SWIR2 gain was 499 offset was 2264
Join between VNIR and SWIR1 was 1000 nm
Join between SWIR1 and SWIR2 was 1830 nm
Absolute Reflectance is Enabled
The Absolute Reflectance File is abs165861.ref
VNIR dark signal subtracted
50 dark measurements taken Tue Oct 16 10:13:56 2018
DCC value was 0
Data is compared to a white reference:
60 white reference measurements taken Tue Oct 16 10:14:04 2018
There was no foreoptic attached
Spectrum file is reflectance data
GPS-Latitude is S0
GPS-Longitude is E0
GPS-Altitude is 0
GPS-UTC is Wed Dec 31 17:00:00 1969

Smart Detector
Serial#  0
Signal (A)  0.000E00
Dark (A)  0.000E00
Ref (A)  0.000E00
Status  0 - Uninitialized
Gain  E-4
Averaging  0
Temp (C)  0.0
Humid (%)  0.0

Reflectance Absolute
Wavelength	CANIF27_33.20_00002.asd.ref
350	 0.196449458599091 
351	 0.194179102778435 
352	 0.188806280493736 
353	 0.190802305936813 
354	 0.200714454054832 
355	 0.193987384438515 
356	 0.191550195217133 
357	 0.189160376787186 
358	 0.180944129824638 
359	 0.192390978336334 
360	 0.195255950093269 
361	 0.190108850598335 
362	 0.195486441254616 
363	 0.193991765379906 
364	 0.19370211660862 
365	 0.196397662162781 
366	 0.191496029496193 
367	 0.190788149833679 
368	 0.195069804787636 
369	 0.200852185487747 
370	 0.201435029506683 
371	 0.199125364422798 
372	 0.197352007031441 
373	 0.198679611086845 
374	 0.1972466558218 
375	 0.197804510593414 
376	 0.199643313884735 
377	 0.196187645196915 
378	 0.19670382142067 
379	 0.199975103139877 
380	 0.202735126018524 
381	 0.201828271150589 
382	 0.200396880507469 
383	 0.200274661183357 
384	 0.201804891228676 
385	 0.200637832283974 
386	 0.199839413166046 
387	 0.200553342700005 
388	 0.201744571328163 
389	 0.202156782150269 
390	 0.202104285359383 
391	 0.202102556824684 
392	 0.202569231390953 
393	 0.201715841889381 
394	 0.201079681515694 
395	 0.202222406864166 
396	 0.201468080282211 
397	 0.201147168874741 
398	 0.201944634318352 
399	 0.202886894345284 
400	 0.201172962784767 
401	 0.20049686729908 
402	 0.202372640371323 
403	 0.203056946396828 
404	 0.202173262834549 
405	 0.201245367527008 
406	 0.201712846755981 
407	 0.201998636126518 
408	 0.201878517866135 
409	 0.201280623674393 
410	 0.200412318110466 
411	 0.201412588357925 
412	 0.201721802353859 
413	 0.200597926974297 
414	 0.201006293296814 
415	 0.201483055949211 
416	 0.20113705098629 
417	 0.199947088956833 
418	 0.200407981872559 
419	 0.200543493032455 
420	 0.200620099902153 
421	 0.201981380581856 
422	 0.201497659087181 
423	 0.200876548886299 
424	 0.200959399342537 
425	 0.200429320335388 
426	 0.200409114360809 
427	 0.200602263212204 
428	 0.200590074062347 
429	 0.200848937034607 
430	 0.201525166630745 
431	 0.202095493674278 
432	 0.201824545860291 
433	 0.202003002166748 
434	 0.202156275510788 
435	 0.202104285359383 
436	 0.202422559261322 
437	 0.202747017145157 
438	 0.203222259879112 
439	 0.203834399580956 
440	 0.203471347689629 
441	 0.203445956110954 
442	 0.203906387090683 
443	 0.204211220145226 
444	 0.204340234398842 
445	 0.204395204782486 
446	 0.20450022816658 
447	 0.204784661531448 
448	 0.205000892281532 
449	 0.205237343907356 
450	 0.205582439899445 
451	 0.205706909298897 
452	 0.205831989645958 
453	 0.206020802259445 
454	 0.206202864646912 
455	 0.206329077482224 
456	 0.206580281257629 
457	 0.206877574324608 
458	 0.206527858972549 
459	 0.206687435507774 
460	 0.20701177418232 
461	 0.20690456032753 
462	 0.207142099738121 
463	 0.207467004656792 
464	 0.207628577947617 
465	 0.20746248960495 
466	 0.207414269447327 
467	 0.207672923803329 
468	 0.208102196455002 
469	 0.207912102341652 
470	 0.208050921559334 
471	 0.208463743329048 
472	 0.208711951971054 
473	 0.208662793040276 
474	 0.208734974265099 
475	 0.209011107683182 
476	 0.209180817008018 
477	 0.209515377879143 
478	 0.209823101758957 
479	 0.209975764155388 
480	 0.210273921489716 
481	 0.210626304149628 
482	 0.210957705974579 
483	 0.211221918463707 
484	 0.211573779582977 
485	 0.211860910058022 
486	 0.212057903409004 
487	 0.212343886494637 
488	 0.212615489959717 
489	 0.212931513786316 
490	 0.213337808847427 
491	 0.213713958859444 
492	 0.214023694396019 
493	 0.214305698871613 
494	 0.214637160301208 
495	 0.214957401156425 
496	 0.215255439281464 
497	 0.21549728512764 
498	 0.215586543083191 
499	 0.215864613652229 
500	 0.21625417470932 
501	 0.216579914093018 
502	 0.216883599758148 
503	 0.217154145240784 
504	 0.217356666922569 
505	 0.217455103993416 
506	 0.217670798301697 
507	 0.21786305308342 
508	 0.217985883355141 
509	 0.218332022428513 
510	 0.218698173761368 
511	 0.218883484601974 
512	 0.218801200389862 
513	 0.218961596488953 
514	 0.219185188412666 
515	 0.219336897134781 
516	 0.21938444674015 
517	 0.219620913267136 
518	 0.219813674688339 
519	 0.219812139868736 
520	 0.219981446862221 
521	 0.220056146383286 
522	 0.220049411058426 
523	 0.220093309879303 
524	 0.220141634345055 
525	 0.220200896263123 
526	 0.220264732837677 
527	 0.220306351780891 
528	 0.220330730080605 
529	 0.220399603247643 
530	 0.22051665186882 
531	 0.22044774889946 
532	 0.220350369811058 
533	 0.220267623662949 
534	 0.2201769053936 
535	 0.220221936702728 
536	 0.220196425914764 
537	 0.220019981265068 
538	 0.219892874360085 
539	 0.219800040125847 
540	 0.219730705022812 
541	 0.219658434391022 
542	 0.219506040215492 
543	 0.219412982463837 
544	 0.219372466206551 
545	 0.21925100684166 
546	 0.219018116593361 
547	 0.218820318579674 
548	 0.218722313642502 
549	 0.218548074364662 
550	 0.218342036008835 
551	 0.218151241540909 
552	 0.218000531196594 
553	 0.217749491333961 
554	 0.217525854706764 
555	 0.217377588152885 
556	 0.217245787382126 
557	 0.217088222503662 
558	 0.216896921396255 
559	 0.216667100787163 
560	 0.216355845332146 
561	 0.216134026646614 
562	 0.215924680233002 
563	 0.215557426214218 
564	 0.215220794081688 
565	 0.214966312050819 
566	 0.214769199490547 
567	 0.214523404836655 
568	 0.214343279600143 
569	 0.214152812957764 
570	 0.213885739445686 
571	 0.213702917098999 
572	 0.213524013757706 
573	 0.213287085294724 
574	 0.212961092591286 
575	 0.212654575705528 
576	 0.212348833680153 
577	 0.212046682834625 
578	 0.21182769536972 
579	 0.211548238992691 
580	 0.211208254098892 
581	 0.210847795009613 
582	 0.210440799593925 
583	 0.210040271282196 
584	 0.209703221917152 
585	 0.209477335214615 
586	 0.209337383508682 
587	 0.209164753556252 
588	 0.208895087242126 
589	 0.208631753921509 
590	 0.208186447620392 
591	 0.207681313157082 
592	 0.207327842712402 
593	 0.207092419266701 
594	 0.206838250160217 
595	 0.206531792879105 
596	 0.206255316734314 
597	 0.205963507294655 
598	 0.205612346529961 
599	 0.205226615071297 
600	 0.205016598105431 
601	 0.204888343811035 
602	 0.204732090234756 
603	 0.204466953873634 
604	 0.204316020011902 
605	 0.204150721430779 
606	 0.203892707824707 
607	 0.203568398952484 
608	 0.203333467245102 
609	 0.203161880373955 
610	 0.202985033392906 
611	 0.202761471271515 
612	 0.202591612935066 
613	 0.202448084950447 
614	 0.20224666595459 
615	 0.202140882611275 
616	 0.202089741826057 
617	 0.202021673321724 
618	 0.201851204037666 
619	 0.201773151755333 
620	 0.201748579740524 
621	 0.201695188879967 
622	 0.201644867658615 
623	 0.201603651046753 
624	 0.201590433716774 
625	 0.201625660061836 
626	 0.201646625995636 
627	 0.201691627502441 
628	 0.201780036091805 
629	 0.201873272657394 
630	 0.202001854777336 
631	 0.202117338776588 
632	 0.202188104391098 
633	 0.202355295419693 
634	 0.20253124833107 
635	 0.20269575715065 
636	 0.202883794903755 
637	 0.203052014112473 
638	 0.2032500654459 
639	 0.203484013676643 
640	 0.203649595379829 
641	 0.203888490796089 
642	 0.204060509800911 
643	 0.204034835100174 
644	 0.204161286354065 
645	 0.204275980591774 
646	 0.204343095421791 
647	 0.204447641968727 
648	 0.204624816775322 
649	 0.204845696687698 
650	 0.205101639032364 
651	 0.205455094575882 
652	 0.205749914050102 
653	 0.206026762723923 
654	 0.20635487139225 
655	 0.206594318151474 
656	 0.206828132271767 
657	 0.207137167453766 
658	 0.207570061087608 
659	 0.207906916737556 
660	 0.208216667175293 
661	 0.208574444055557 
662	 0.208974927663803 
663	 0.209443882107735 
664	 0.209917113184929 
665	 0.21032027900219 
666	 0.210671991109848 
667	 0.211051315069199 
668	 0.211478367447853 
669	 0.211920946836472 
670	 0.212337017059326 
671	 0.212748423218727 
672	 0.213138803839684 
673	 0.213400706648827 
674	 0.213856220245361 
675	 0.214341178536415 
676	 0.214619353413582 
677	 0.214792340993881 
678	 0.21491165459156 
679	 0.21502560377121 
680	 0.215170487761497 
681	 0.215338423848152 
682	 0.215392529964447 
683	 0.215340211987495 
684	 0.21541254222393 
685	 0.215595364570618 
686	 0.215880185365677 
687	 0.216239988803864 
688	 0.216620281338692 
689	 0.217003971338272 
690	 0.217349126935005 
691	 0.217618241906166 
692	 0.21787329018116 
693	 0.218163415789604 
694	 0.218536853790283 
695	 0.2190350741148 
696	 0.219408720731735 
697	 0.219823122024536 
698	 0.22039557993412 
699	 0.220876678824425 
700	 0.221429735422134 
701	 0.221995800733566 
702	 0.222457736730576 
703	 0.222895309329033 
704	 0.223358333110809 
705	 0.223831936717033 
706	 0.224251478910446 
707	 0.224688857793808 
708	 0.22511899471283 
709	 0.225523799657822 
710	 0.225926011800766 
711	 0.226308301091194 
712	 0.226698756217957 
713	 0.22711817920208 
714	 0.227514460682869 
715	 0.227856740355492 
716	 0.228212729096413 
717	 0.228663995862007 
718	 0.228868290781975 
719	 0.229149773716927 
720	 0.22959777712822 
721	 0.229925021529198 
722	 0.230179995298386 
723	 0.230476960539818 
724	 0.230845078825951 
725	 0.231045737862587 
726	 0.231295585632324 
727	 0.231602892279625 
728	 0.23190401494503 
729	 0.232237830758095 
730	 0.232395485043526 
731	 0.232491388916969 
732	 0.23284812271595 
733	 0.233069464564323 
734	 0.233272209763527 
735	 0.233501330018044 
736	 0.233589679002762 
737	 0.23379410803318 
738	 0.234013751149178 
739	 0.234158486127853 
740	 0.234457492828369 
741	 0.23463062942028 
742	 0.234713152050972 
743	 0.234866455197334 
744	 0.235091835260391 
745	 0.235307842493057 
746	 0.235509395599365 
747	 0.235745891928673 
748	 0.235835880041122 
749	 0.23593857884407 
750	 0.236139476299286 
751	 0.236335948109627 
752	 0.236499056220055 
753	 0.236670285463333 
754	 0.236861154437065 
755	 0.236929059028625 
756	 0.237088114023209 
757	 0.237252041697502 
758	 0.237268880009651 
759	 0.237323775887489 
760	 0.237504363059998 
761	 0.237749457359314 
762	 0.237903654575348 
763	 0.238029539585114 
764	 0.238145649433136 
765	 0.238254010677338 
766	 0.238340064883232 
767	 0.238366827368736 
768	 0.238380581140518 
769	 0.238440155982971 
770	 0.238591328263283 
771	 0.238774716854095 
772	 0.23892268538475 
773	 0.238984301686287 
774	 0.238967016339302 
775	 0.238990753889084 
776	 0.239074319601059 
777	 0.239177092909813 
778	 0.239316716790199 
779	 0.239415839314461 
780	 0.239480033516884 
781	 0.239586725831032 
782	 0.239638105034828 
783	 0.239643767476082 
784	 0.239644423127174 
785	 0.239697322249413 
786	 0.239753559231758 
787	 0.239820227026939 
788	 0.239886224269867 
789	 0.239859148859978 
790	 0.239878907799721 
791	 0.239953681826591 
792	 0.240026518702507 
793	 0.239986032247543 
794	 0.239954128861427 
795	 0.240048035979271 
796	 0.240298360586166 
797	 0.240332752466202 
798	 0.240279883146286 
799	 0.240268960595131 
800	 0.240365251898766 
801	 0.24034595489502 
802	 0.240338414907455 
803	 0.240425303578377 
804	 0.240569174289703 
805	 0.240551069378853 
806	 0.240597367286682 
807	 0.240804970264435 
808	 0.240892350673676 
809	 0.240925520658493 
810	 0.24095293879509 
811	 0.241006433963776 
812	 0.24107800424099 
813	 0.24109511077404 
814	 0.241136580705643 
815	 0.24126148223877 
816	 0.241249054670334 
817	 0.241185665130615 
818	 0.241196602582932 
819	 0.241367489099503 
820	 0.241527020931244 
821	 0.24155393242836 
822	 0.24151848256588 
823	 0.241588741540909 
824	 0.2416170835495 
825	 0.241628035902977 
826	 0.241658970713615 
827	 0.241733685135841 
828	 0.241768226027489 
829	 0.241824716329575 
830	 0.241878464818001 
831	 0.241791889071465 
832	 0.241781324148178 
833	 0.241891443729401 
834	 0.242014035582542 
835	 0.241874933242798 
836	 0.241976082324982 
837	 0.242097482085228 
838	 0.242051959037781 
839	 0.242085203528404 
840	 0.242086470127106 
841	 0.242108464241028 
842	 0.242185071110725 
843	 0.242183014750481 
844	 0.242212876677513 
845	 0.242253795266151 
846	 0.242258220911026 
847	 0.242244869470596 
848	 0.242196440696716 
849	 0.242178082466125 
850	 0.242248147726059 
851	 0.242310166358948 
852	 0.242357715964317 
853	 0.242386937141418 
854	 0.242403969168663 
855	 0.242452993988991 
856	 0.2424276471138 
857	 0.242358714342117 
858	 0.242341741919518 
859	 0.242324337363243 
860	 0.242389008402824 
861	 0.242500960826874 
862	 0.242553576827049 
863	 0.242550522089005 
864	 0.242483332753181 
865	 0.242413178086281 
866	 0.242429926991463 
867	 0.24247832596302 
868	 0.242436200380325 
869	 0.242356106638908 
870	 0.242414936423302 
871	 0.2425527125597 
872	 0.242679327726364 
873	 0.242728173732758 
874	 0.242671683430672 
875	 0.24250952899456 
876	 0.242489188909531 
877	 0.242615357041359 
878	 0.242648914456367 
879	 0.242545202374458 
880	 0.242524832487106 
881	 0.242613941431046 
882	 0.242629334330559 
883	 0.242618292570114 
884	 0.242615684866905 
885	 0.242655694484711 
886	 0.242749840021133 
887	 0.242747187614441 
888	 0.242681995034218 
889	 0.24262672662735 
890	 0.242647737264633 
891	 0.242680251598358 
892	 0.242683202028275 
893	 0.242667183279991 
894	 0.242679581046104 
895	 0.242657512426376 
896	 0.24269711971283 
897	 0.242765873670578 
898	 0.242734059691429 
899	 0.242802530527115 
900	 0.24278898537159 
901	 0.2426837682724 
902	 0.242651253938675 
903	 0.242737352848053 
904	 0.242715612053871 
905	 0.242609515786171 
906	 0.242622196674347 
907	 0.242634788155556 
908	 0.242656201124191 
909	 0.242661654949188 
910	 0.242619886994362 
911	 0.242619156837463 
912	 0.242621168494225 
913	 0.242602542042732 
914	 0.242566391825676 
915	 0.242566019296646 
916	 0.24253149330616 
917	 0.242501497268677 
918	 0.242544621229172 
919	 0.242604523897171 
920	 0.24257518351078 
921	 0.242530778050423 
922	 0.242548048496246 
923	 0.242400795221329 
924	 0.24241541326046 
925	 0.242510557174683 
926	 0.242503434419632 
927	 0.242380693554878 
928	 0.242344796657562 
929	 0.242368027567863 
930	 0.242389932274818 
931	 0.242448747158051 
932	 0.24239157140255 
933	 0.242314144968987 
934	 0.242294743657112 
935	 0.242273926734924 
936	 0.242209196090698 
937	 0.242227733135223 
938	 0.242318287491798 
939	 0.242283508181572 
940	 0.242227226495743 
941	 0.242162719368935 
942	 0.242099225521088 
943	 0.242053151130676 
944	 0.242060884833336 
945	 0.242054328322411 
946	 0.241999208927155 
947	 0.241912394762039 
948	 0.241891980171204 
949	 0.241792947053909 
950	 0.241585567593575 
951	 0.241346463561058 
952	 0.241262212395668 
953	 0.241212964057922 
954	 0.241108372807503 
955	 0.240936547517776 
956	 0.240825593471527 
957	 0.240742191672325 
958	 0.240718632936478 
959	 0.240710988640785 
960	 0.240569084882736 
961	 0.240415811538696 
962	 0.240294978022575 
963	 0.240214705467224 
964	 0.240171179175377 
965	 0.240260362625122 
966	 0.240361794829369 
967	 0.240438774228096 
968	 0.24050834774971 
969	 0.240483611822128 
970	 0.240621790289879 
971	 0.240781515836716 
972	 0.240777671337128 
973	 0.240776926279068 
974	 0.240742400288582 
975	 0.240829288959503 
976	 0.241012081503868 
977	 0.240967690944672 
978	 0.240932539105415 
979	 0.240953505039215 
980	 0.24093434214592 
981	 0.240745037794113 
982	 0.240651547908783 
983	 0.240618154406548 
984	 0.240555614233017 
985	 0.240435540676117 
986	 0.240488156676292 
987	 0.24046628177166 
988	 0.240509733557701 
989	 0.24063903093338 
990	 0.240485191345215 
991	 0.24047227203846 
992	 0.240420609712601 
993	 0.240244820713997 
994	 0.240078091621399 
995	 0.240040197968483 
996	 0.240038365125656 
997	 0.240034610033035 
998	 0.240023106336594 
999	 0.239958599209785 
1000	 0.239900574088097 
1001	 0.23901492357254 
1002	 0.238931864500046 
1003	 0.238673806190491 
1004	 0.238521873950958 
1005	 0.238537684082985 
1006	 0.238574177026749 
1007	 0.238855615258217 
1008	 0.238928213715553 
1009	 0.238912358880043 
1010	 0.238762959837914 
1011	 0.238679423928261 
1012	 0.238490432500839 
1013	 0.238437011837959 
1014	 0.238467007875443 
1015	 0.238458722829819 
1016	 0.238483890891075 
1017	 0.238512471318245 
1018	 0.238453477621078 
1019	 0.238275840878487 
1020	 0.238130062818527 
1021	 0.238004446029663 
1022	 0.237916320562363 
1023	 0.237971127033234 
1024	 0.237940654158592 
1025	 0.237903535366058 
1026	 0.237836495041847 
1027	 0.237721309065819 
1028	 0.237605094909668 
1029	 0.237463757395744 
1030	 0.237385272979736 
1031	 0.237211421132088 
1032	 0.237154722213745 
1033	 0.237136796116829 
1034	 0.23702572286129 
1035	 0.23696480691433 
1036	 0.236947983503342 
1037	 0.236857414245605 
1038	 0.236773148179054 
1039	 0.236663520336151 
1040	 0.236491084098816 
1041	 0.23635433614254 
1042	 0.236190959811211 
1043	 0.2361199259758 
1044	 0.236104384064674 
1045	 0.23612080514431 
1046	 0.236174255609512 
1047	 0.236163452267647 
1048	 0.236059799790382 
1049	 0.235937431454659 
1050	 0.23575147986412 
1051	 0.235573336482048 
1052	 0.235474586486816 
1053	 0.235453113913536 
1054	 0.235422402620316 
1055	 0.235501036047935 
1056	 0.235487073659897 
1057	 0.235453397035599 
1058	 0.235314935445786 
1059	 0.235233649611473 
1060	 0.235080450773239 
1061	 0.234999522566795 
1062	 0.23498572409153 
1063	 0.234893247485161 
1064	 0.234829977154732 
1065	 0.234727337956429 
1066	 0.23458856344223 
1067	 0.234547823667526 
1068	 0.234555676579475 
1069	 0.234508112072945 
1070	 0.234468132257462 
1071	 0.234398230910301 
1072	 0.234309136867523 
1073	 0.234141200780869 
1074	 0.234019473195076 
1075	 0.233884885907173 
1076	 0.233756139874458 
1077	 0.233692184090614 
1078	 0.233555480837822 
1079	 0.233434036374092 
1080	 0.233376890420914 
1081	 0.233265906572342 
1082	 0.233223512768745 
1083	 0.233212471008301 
1084	 0.233105331659317 
1085	 0.233066156506538 
1086	 0.233014896512032 
1087	 0.23296320438385 
1088	 0.232855543494225 
1089	 0.232837095856667 
1090	 0.232769161462784 
1091	 0.232643842697144 
1092	 0.232543468475342 
1093	 0.232406660914421 
1094	 0.232258528470993 
1095	 0.232121363282204 
1096	 0.232052206993103 
1097	 0.232035577297211 
1098	 0.231949463486671 
1099	 0.231890186667442 
1100	 0.231742814183235 
1101	 0.231596991419792 
1102	 0.231378763914108 
1103	 0.231323182582855 
1104	 0.231196463108063 
1105	 0.231112465262413 
1106	 0.231158688664436 
1107	 0.2310980707407 
1108	 0.231028854846954 
1109	 0.231013253331184 
1110	 0.230978667736053 
1111	 0.230879187583923 
1112	 0.230765640735626 
1113	 0.230713233351707 
1114	 0.230625122785568 
1115	 0.230539932847023 
1116	 0.230544030666351 
1117	 0.230471611022949 
1118	 0.230361446738243 
1119	 0.230234310030937 
1120	 0.230114325881004 
1121	 0.229954063892365 
1122	 0.229948148131371 
1123	 0.229893893003464 
1124	 0.229785904288292 
1125	 0.229790061712265 
1126	 0.229655280709267 
1127	 0.229555428028107 
1128	 0.229562684893608 
1129	 0.229451298713684 
1130	 0.229355379939079 
1131	 0.229269579052925 
1132	 0.229172468185425 
1133	 0.229125082492828 
1134	 0.229081377387047 
1135	 0.229067340493202 
1136	 0.229057878255844 
1137	 0.228982165455818 
1138	 0.228903189301491 
1139	 0.228834480047226 
1140	 0.228753551840782 
1141	 0.22871308028698 
1142	 0.228647798299789 
1143	 0.228548675775528 
1144	 0.228443488478661 
1145	 0.228326067328453 
1146	 0.22821581363678 
1147	 0.228161945939064 
1148	 0.228120043873787 
1149	 0.228053510189056 
1150	 0.227997988462448 
1151	 0.227954611182213 
1152	 0.227914914488792 
1153	 0.227815717458725 
1154	 0.227714627981186 
1155	 0.227605581283569 
1156	 0.227483853697777 
1157	 0.22737392783165 
1158	 0.227298855781555 
1159	 0.227244049310684 
1160	 0.227185592055321 
1161	 0.22713129222393 
1162	 0.227060869336128 
1163	 0.226974338293076 
1164	 0.226884499192238 
1165	 0.226785108447075 
1166	 0.226698324084282 
1167	 0.226654797792435 
1168	 0.226590737700462 
1169	 0.226517230272293 
1170	 0.22641333937645 
1171	 0.22637677192688 
1172	 0.226282894611359 
1173	 0.226128920912743 
1174	 0.226052612066269 
1175	 0.225948750972748 
1176	 0.225840702652931 
1177	 0.225814625620842 
1178	 0.225761041045189 
1179	 0.225674599409103 
1180	 0.225591748952866 
1181	 0.225460559129715 
1182	 0.22533917427063 
1183	 0.225238099694252 
1184	 0.225117623806 
1185	 0.22505047917366 
1186	 0.225052088499069 
1187	 0.225001186132431 
1188	 0.224958017468452 
1189	 0.224904417991638 
1190	 0.224796146154404 
1191	 0.224656075239182 
1192	 0.224542543292046 
1193	 0.224470779299736 
1194	 0.224417865276337 
1195	 0.224364548921585 
1196	 0.224262565374374 
1197	 0.224156200885773 
1198	 0.224054858088493 
1199	 0.223976999521255 
1200	 0.223930567502975 
1201	 0.223842322826385 
1202	 0.223774656653404 
1203	 0.223695233464241 
1204	 0.223628163337708 
1205	 0.22360223531723 
1206	 0.223550543189049 
1207	 0.223484978079796 
1208	 0.223414838314056 
1209	 0.223331719636917 
1210	 0.223204404115677 
1211	 0.223124071955681 
1212	 0.22302982211113 
1213	 0.222931429743767 
1214	 0.222875833511353 
1215	 0.222767576575279 
1216	 0.222675994038582 
1217	 0.222651109099388 
1218	 0.222580045461655 
1219	 0.222509011626244 
1220	 0.222456559538841 
1221	 0.22238190472126 
1222	 0.222268491983414 
1223	 0.222200870513916 
1224	 0.22215773165226 
1225	 0.222095683217049 
1226	 0.222055047750473 
1227	 0.221954450011253 
1228	 0.221887543797493 
1229	 0.221845641732216 
1230	 0.221741199493408 
1231	 0.22170415520668 
1232	 0.221642091870308 
1233	 0.221489638090134 
1234	 0.221395835280418 
1235	 0.221318021416664 
1236	 0.221205666661263 
1237	 0.221164375543594 
1238	 0.22110815346241 
1239	 0.221069827675819 
1240	 0.220982998609543 
1241	 0.220863327383995 
1242	 0.220782890915871 
1243	 0.220713779330254 
1244	 0.220635160803795 
1245	 0.220574393868446 
1246	 0.220507919788361 
1247	 0.220424860715866 
1248	 0.22031931579113 
1249	 0.220279216766357 
1250	 0.220234990119934 
1251	 0.220144838094711 
1252	 0.22006967663765 
1253	 0.219986617565155 
1254	 0.219932541251183 
1255	 0.219918921589851 
1256	 0.219912707805634 
1257	 0.219886019825935 
1258	 0.219844236969948 
1259	 0.219780996441841 
1260	 0.219661951065063 
1261	 0.219591945409775 
1262	 0.219534888863564 
1263	 0.219476610422134 
1264	 0.219461858272552 
1265	 0.219418704509735 
1266	 0.219332933425903 
1267	 0.219272822141647 
1268	 0.219217523932457 
1269	 0.21915265917778 
1270	 0.219088181853294 
1271	 0.219066932797432 
1272	 0.218953356146812 
1273	 0.218865364789963 
1274	 0.218843668699265 
1275	 0.218799695372581 
1276	 0.21874412894249 
1277	 0.218678310513496 
1278	 0.218606159090996 
1279	 0.218480467796326 
1280	 0.218393474817276 
1281	 0.218374371528625 
1282	 0.218301996588707 
1283	 0.218195661902428 
1284	 0.218102321028709 
1285	 0.217973589897156 
1286	 0.21788614988327 
1287	 0.21784844994545 
1288	 0.217757374048233 
1289	 0.217658415436745 
1290	 0.217571422457695 
1291	 0.21746326982975 
1292	 0.217326551675797 
1293	 0.217264294624329 
1294	 0.21721151471138 
1295	 0.217132240533829 
1296	 0.2170729637146 
1297	 0.216991439461708 
1298	 0.21691070497036 
1299	 0.216859355568886 
1300	 0.216782331466675 
1301	 0.216696575284004 
1302	 0.216639071702957 
1303	 0.21654886007309 
1304	 0.216421946883202 
1305	 0.216328084468842 
1306	 0.216221883893013 
1307	 0.216141879558563 
1308	 0.216115638613701 
1309	 0.216036215424538 
1310	 0.2159423828125 
1311	 0.215863347053528 
1312	 0.21576189994812 
1313	 0.215649724006653 
1314	 0.215546354651451 
1315	 0.215441778302193 
1316	 0.215300053358078 
1317	 0.215205132961273 
1318	 0.215125977993011 
1319	 0.21502274274826 
1320	 0.214928239583969 
1321	 0.214848652482033 
1322	 0.214767247438431 
1323	 0.214654624462128 
1324	 0.214543879032135 
1325	 0.214412823319435 
1326	 0.214297249913216 
1327	 0.214189395308495 
1328	 0.214086711406708 
1329	 0.2139782756567 
1330	 0.213905975222588 
1331	 0.213854655623436 
1332	 0.213799402117729 
1333	 0.213771313428879 
1334	 0.213720425963402 
1335	 0.213634297251701 
1336	 0.213595360517502 
1337	 0.213607802987099 
1338	 0.213573321700096 
1339	 0.213530108332634 
1340	 0.213495895266533 
1341	 0.213458344340324 
1342	 0.213377296924591 
1343	 0.213301196694374 
1344	 0.213254049420357 
1345	 0.213217988610268 
1346	 0.213179066777229 
1347	 0.213137179613113 
1348	 0.2131028175354 
1349	 0.213053748011589 
1350	 0.212995931506157 
1351	 0.212945818901062 
1352	 0.212931364774704 
1353	 0.212872818112373 
1354	 0.212780177593231 
1355	 0.212705865502357 
1356	 0.212629109621048 
1357	 0.212547644972801 
1358	 0.212473437190056 
1359	 0.212379992008209 
1360	 0.212275773286819 
1361	 0.212162226438522 
1362	 0.212030991911888 
1363	 0.211914926767349 
1364	 0.211791068315506 
1365	 0.211681872606277 
1366	 0.211614415049553 
1367	 0.211489826440811 
1368	 0.211339473724365 
1369	 0.211194455623627 
1370	 0.210997566580772 
1371	 0.210820659995079 
1372	 0.210673108696938 
1373	 0.210508748888969 
1374	 0.210327222943306 
1375	 0.210130020976067 
1376	 0.209983259439468 
1377	 0.209822863340378 
1378	 0.209638074040413 
1379	 0.209470763802528 
1380	 0.209235519170761 
1381	 0.20892658829689 
1382	 0.208624556660652 
1383	 0.208352282643318 
1384	 0.207946270704269 
1385	 0.207525178790092 
1386	 0.206951886415482 
1387	 0.206308111548424 
1388	 0.205482304096222 
1389	 0.204575508832932 
1390	 0.203447341918945 
1391	 0.20215405523777 
1392	 0.200657323002815 
1393	 0.198906153440475 
1394	 0.197092056274414 
1395	 0.195051640272141 
1396	 0.193028047680855 
1397	 0.190842986106873 
1398	 0.188775792717934 
1399	 0.186683282256126 
1400	 0.184666186571121 
1401	 0.18278095126152 
1402	 0.181093901395798 
1403	 0.179570257663727 
1404	 0.178182199597359 
1405	 0.176973313093185 
1406	 0.175907552242279 
1407	 0.174955070018768 
1408	 0.174153953790665 
1409	 0.17353144288063 
1410	 0.17307747900486 
1411	 0.172916248440742 
1412	 0.172926113009453 
1413	 0.173343151807785 
1414	 0.174070507287979 
1415	 0.175079613924026 
1416	 0.176491856575012 
1417	 0.177986368536949 
1418	 0.179833650588989 
1419	 0.181552991271019 
1420	 0.183460786938667 
1421	 0.185190886259079 
1422	 0.186934933066368 
1423	 0.188464343547821 
1424	 0.189923748373985 
1425	 0.1911780834198 
1426	 0.192203611135483 
1427	 0.193165645003319 
1428	 0.193969577550888 
1429	 0.19471400976181 
1430	 0.195363417267799 
1431	 0.1959428191185 
1432	 0.196434006094933 
1433	 0.196859374642372 
1434	 0.197195470333099 
1435	 0.19747668504715 
1436	 0.197748482227325 
1437	 0.197971940040588 
1438	 0.198170527815819 
1439	 0.198369726538658 
1440	 0.198497444391251 
1441	 0.198592036962509 
1442	 0.198693081736565 
1443	 0.19874469935894 
1444	 0.198778450489044 
1445	 0.198806464672089 
1446	 0.198808088898659 
1447	 0.198766618967056 
1448	 0.198763981461525 
1449	 0.198765203356743 
1450	 0.198755368590355 
1451	 0.198771432042122 
1452	 0.198738187551498 
1453	 0.198649421334267 
1454	 0.198615118861198 
1455	 0.198582544922829 
1456	 0.198558405041695 
1457	 0.198573514819145 
1458	 0.198559239506721 
1459	 0.19853113591671 
1460	 0.19850067794323 
1461	 0.198456212878227 
1462	 0.198430359363556 
1463	 0.198394194245338 
1464	 0.198382332921028 
1465	 0.198403775691986 
1466	 0.198409125208855 
1467	 0.19843427836895 
1468	 0.198429316282272 
1469	 0.198383063077927 
1470	 0.1983752399683 
1471	 0.198374211788177 
1472	 0.198368862271309 
1473	 0.198396816849709 
1474	 0.198400601744652 
1475	 0.198372542858124 
1476	 0.198360949754715 
1477	 0.198361992835999 
1478	 0.198367044329643 
1479	 0.198390126228333 
1480	 0.198402807116508 
1481	 0.198420092463493 
1482	 0.198442429304123 
1483	 0.198433831334114 
1484	 0.19842691719532 
1485	 0.198429763317108 
1486	 0.198422163724899 
1487	 0.198444336652756 
1488	 0.198467954993248 
1489	 0.198469415307045 
1490	 0.198481857776642 
1491	 0.198462054133415 
1492	 0.198449119925499 
1493	 0.198455676436424 
1494	 0.198471441864967 
1495	 0.198470219969749 
1496	 0.198484018445015 
1497	 0.198485180735588 
1498	 0.19846399128437 
1499	 0.198457688093185 
1500	 0.198453441262245 
1501	 0.198468804359436 
1502	 0.198507338762283 
1503	 0.198500379920006 
1504	 0.198488056659698 
1505	 0.19847683608532 
1506	 0.198412954807281 
1507	 0.198410153388977 
1508	 0.198473572731018 
1509	 0.198474332690239 
1510	 0.198453068733215 
1511	 0.198453143239021 
1512	 0.198435589671135 
1513	 0.198421910405159 
1514	 0.198423787951469 
1515	 0.198431149125099 
1516	 0.198431387543678 
1517	 0.198437243700027 
1518	 0.198477625846863 
1519	 0.198478952050209 
1520	 0.198454335331917 
1521	 0.198426395654678 
1522	 0.198369234800339 
1523	 0.198343828320503 
1524	 0.19833043217659 
1525	 0.198311641812325 
1526	 0.198311895132065 
1527	 0.198291957378387 
1528	 0.198259085416794 
1529	 0.198223277926445 
1530	 0.198167756199837 
1531	 0.198139011859894 
1532	 0.198112294077873 
1533	 0.198094800114632 
1534	 0.198083311319351 
1535	 0.19805571436882 
1536	 0.198057502508163 
1537	 0.198038563132286 
1538	 0.198006853461266 
1539	 0.198009550571442 
1540	 0.197966516017914 
1541	 0.197898015379906 
1542	 0.197871878743172 
1543	 0.197832614183426 
1544	 0.197788596153259 
1545	 0.197783172130585 
1546	 0.197771862149239 
1547	 0.197734966874123 
1548	 0.197709918022156 
1549	 0.197702795267105 
1550	 0.197670236229897 
1551	 0.197629436850548 
1552	 0.197598814964294 
1553	 0.19755594432354 
1554	 0.197515115141869 
1555	 0.197481691837311 
1556	 0.197460517287254 
1557	 0.197427362203598 
1558	 0.19734825193882 
1559	 0.197296470403671 
1560	 0.19727124273777 
1561	 0.19720096886158 
1562	 0.19716314971447 
1563	 0.197156101465225 
1564	 0.19708751142025 
1565	 0.197030484676361 
1566	 0.197025567293167 
1567	 0.196995034813881 
1568	 0.196941256523132 
1569	 0.196886375546455 
1570	 0.196827337145805 
1571	 0.196716755628586 
1572	 0.196675270795822 
1573	 0.196696355938911 
1574	 0.196647167205811 
1575	 0.196574360132217 
1576	 0.196526497602463 
1577	 0.196455299854279 
1578	 0.196421355009079 
1579	 0.19643397629261 
1580	 0.196409776806831 
1581	 0.196381539106369 
1582	 0.196327641606331 
1583	 0.196239426732063 
1584	 0.19620169699192 
1585	 0.196171715855598 
1586	 0.196132317185402 
1587	 0.19613941013813 
1588	 0.196092516183853 
1589	 0.195975750684738 
1590	 0.195935815572739 
1591	 0.195930048823357 
1592	 0.195887342095375 
1593	 0.195875376462936 
1594	 0.195830479264259 
1595	 0.195733144879341 
1596	 0.195662006735802 
1597	 0.195600494742393 
1598	 0.195539489388466 
1599	 0.195464357733727 
1600	 0.195404708385468 
1601	 0.195365771651268 
1602	 0.195333927869797 
1603	 0.195319965481758 
1604	 0.195286855101585 
1605	 0.195257231593132 
1606	 0.195185884833336 
1607	 0.195063695311546 
1608	 0.195002049207687 
1609	 0.194957569241524 
1610	 0.19491820037365 
1611	 0.194916427135468 
1612	 0.194870799779892 
1613	 0.194793656468391 
1614	 0.194738864898682 
1615	 0.194687858223915 
1616	 0.194635659456253 
1617	 0.194590076804161 
1618	 0.194531798362732 
1619	 0.194459930062294 
1620	 0.194407969713211 
1621	 0.194351702928543 
1622	 0.194322273135185 
1623	 0.19432133436203 
1624	 0.194288283586502 
1625	 0.194274604320526 
1626	 0.194233119487762 
1627	 0.194153219461441 
1628	 0.194095954298973 
1629	 0.194029346108437 
1630	 0.193969935178757 
1631	 0.193938538432121 
1632	 0.193865597248077 
1633	 0.193757280707359 
1634	 0.193700432777405 
1635	 0.193637877702713 
1636	 0.193583562970161 
1637	 0.193590104579926 
1638	 0.193530678749084 
1639	 0.193420231342316 
1640	 0.193357527256012 
1641	 0.193296149373055 
1642	 0.193245992064476 
1643	 0.193215668201447 
1644	 0.193156912922859 
1645	 0.193098559975624 
1646	 0.193034678697586 
1647	 0.192956611514091 
1648	 0.192901819944382 
1649	 0.192841038107872 
1650	 0.192781642079353 
1651	 0.192729160189629 
1652	 0.192694887518883 
1653	 0.192695453763008 
1654	 0.192644268274307 
1655	 0.192573428153992 
1656	 0.192527875304222 
1657	 0.192444622516632 
1658	 0.192391261458397 
1659	 0.192401364445686 
1660	 0.19235123693943 
1661	 0.192253276705742 
1662	 0.192206531763077 
1663	 0.192167654633522 
1664	 0.192118257284164 
1665	 0.192102551460266 
1666	 0.192031130194664 
1667	 0.191942647099495 
1668	 0.191884949803352 
1669	 0.191854417324066 
1670	 0.191828519105911 
1671	 0.19178307056427 
1672	 0.191727295517921 
1673	 0.191663146018982 
1674	 0.191595926880836 
1675	 0.191562935709953 
1676	 0.191514015197754 
1677	 0.191409200429916 
1678	 0.191345036029816 
1679	 0.191312223672867 
1680	 0.191246703267097 
1681	 0.191226437687874 
1682	 0.191202849149704 
1683	 0.191103503108025 
1684	 0.191039815545082 
1685	 0.19098886847496 
1686	 0.190909206867218 
1687	 0.190851882100105 
1688	 0.190788552165031 
1689	 0.19073161482811 
1690	 0.190719649195671 
1691	 0.190703049302101 
1692	 0.190654709935188 
1693	 0.19060680270195 
1694	 0.190523341298103 
1695	 0.190396621823311 
1696	 0.190292775630951 
1697	 0.190208271145821 
1698	 0.190112486481667 
1699	 0.190082624554634 
1700	 0.190100759267807 
1701	 0.190076053142548 
1702	 0.19006821513176 
1703	 0.190027102828026 
1704	 0.189936473965645 
1705	 0.189886301755905 
1706	 0.18983581662178 
1707	 0.189786747097969 
1708	 0.18973845243454 
1709	 0.189675971865654 
1710	 0.189616918563843 
1711	 0.189525857567787 
1712	 0.189421638846397 
1713	 0.189333453774452 
1714	 0.189243659377098 
1715	 0.189193516969681 
1716	 0.189200446009636 
1717	 0.189159661531448 
1718	 0.189077347517014 
1719	 0.189007163047791 
1720	 0.188891813158989 
1721	 0.188805460929871 
1722	 0.188775226473808 
1723	 0.188722774386406 
1724	 0.188706189393997 
1725	 0.188696444034576 
1726	 0.188594430685043 
1727	 0.188528925180435 
1728	 0.188430428504944 
1729	 0.188364163041115 
1730	 0.18837596476078 
1731	 0.188315957784653 
1732	 0.188198909163475 
1733	 0.188110053539276 
1734	 0.18801087141037 
1735	 0.187931597232819 
1736	 0.187873616814613 
1737	 0.187853336334229 
1738	 0.187774807214737 
1739	 0.187705427408218 
1740	 0.187658831477165 
1741	 0.187559679150581 
1742	 0.187448546290398 
1743	 0.187343209981918 
1744	 0.187274128198624 
1745	 0.187211334705353 
1746	 0.187119677662849 
1747	 0.187041789293289 
1748	 0.186938121914864 
1749	 0.186846792697906 
1750	 0.186823964118958 
1751	 0.186813309788704 
1752	 0.186802536249161 
1753	 0.186742812395096 
1754	 0.1866405159235 
1755	 0.186519786715508 
1756	 0.18638651072979 
1757	 0.186302170157433 
1758	 0.186227917671204 
1759	 0.186151295900345 
1760	 0.186082765460014 
1761	 0.186020150780678 
1762	 0.185938090085983 
1763	 0.185838922858238 
1764	 0.185732573270798 
1765	 0.185595214366913 
1766	 0.185524985194206 
1767	 0.185488849878311 
1768	 0.185435637831688 
1769	 0.185417294502258 
1770	 0.185359716415405 
1771	 0.185264274477959 
1772	 0.185187473893166 
1773	 0.185090243816376 
1774	 0.184970587491989 
1775	 0.184919819235802 
1776	 0.184931069612503 
1777	 0.184917390346527 
1778	 0.184886559844017 
1779	 0.184832602739334 
1780	 0.184805661439896 
1781	 0.18480296432972 
1782	 0.184757918119431 
1783	 0.18469811975956 
1784	 0.184595808386803 
1785	 0.184455215930939 
1786	 0.18439507484436 
1787	 0.184349492192268 
1788	 0.184303611516953 
1789	 0.184305906295776 
1790	 0.184234291315079 
1791	 0.184140384197235 
1792	 0.184099242091179 
1793	 0.184079587459564 
1794	 0.184107393026352 
1795	 0.184111028909683 
1796	 0.184078797698021 
1797	 0.184044674038887 
1798	 0.183949083089828 
1799	 0.183852344751358 
1800	 0.183779627084732 
1801	 0.183684214949608 
1802	 0.183608844876289 
1803	 0.183530420064926 
1804	 0.183484390377998 
1805	 0.183447048068047 
1806	 0.183378130197525 
1807	 0.183376744389534 
1808	 0.183339193463326 
1809	 0.183273449540138 
1810	 0.1832465082407 
1811	 0.183187693357468 
1812	 0.183148011565208 
1813	 0.183056056499481 
1814	 0.18305204808712 
1815	 0.183090329170227 
1816	 0.183103576302528 
1817	 0.183089479804039 
1818	 0.183019891381264 
1819	 0.182918757200241 
1820	 0.182804614305496 
1821	 0.18270081281662 
1822	 0.182576894760132 
1823	 0.182417437434196 
1824	 0.18227219581604 
1825	 0.182183399796486 
1826	 0.182127565145493 
1827	 0.182112365961075 
1828	 0.182124778628349 
1829	 0.182106167078018 
1830	 0.182115823030472 
1831	 0.183973774313927 
1832	 0.183855175971985 
1833	 0.183788612484932 
1834	 0.183831334114075 
1835	 0.183797046542168 
1836	 0.183700010180473 
1837	 0.183660954236984 
1838	 0.183670833706856 
1839	 0.183612897992134 
1840	 0.183537945151329 
1841	 0.183507680892944 
1842	 0.183436259627342 
1843	 0.183357059955597 
1844	 0.183292254805565 
1845	 0.183220714330673 
1846	 0.183197692036629 
1847	 0.183215335011482 
1848	 0.183190703392029 
1849	 0.183192431926727 
1850	 0.183240190148354 
1851	 0.183203637599945 
1852	 0.183136776089668 
1853	 0.183044031262398 
1854	 0.182861417531967 
1855	 0.182738229632378 
1856	 0.182611986994743 
1857	 0.18250247836113 
1858	 0.182407647371292 
1859	 0.182379543781281 
1860	 0.182305753231049 
1861	 0.182071879506111 
1862	 0.181899294257164 
1863	 0.181721448898315 
1864	 0.181495174765587 
1865	 0.181384339928627 
1866	 0.181225761771202 
1867	 0.181069165468216 
1868	 0.180865719914436 
1869	 0.180709436535835 
1870	 0.180473446846008 
1871	 0.180219948291779 
1872	 0.1800177693367 
1873	 0.179705068469048 
1874	 0.179351657629013 
1875	 0.179028451442719 
1876	 0.178611144423485 
1877	 0.178210660815239 
1878	 0.177798002958298 
1879	 0.177432104945183 
1880	 0.176973238587379 
1881	 0.176442518830299 
1882	 0.175900027155876 
1883	 0.17534239590168 
1884	 0.174744427204132 
1885	 0.174123093485832 
1886	 0.173521250486374 
1887	 0.172903597354889 
1888	 0.172257393598557 
1889	 0.171583831310272 
1890	 0.170977205038071 
1891	 0.170329809188843 
1892	 0.169592276215553 
1893	 0.16890811920166 
1894	 0.168217048048973 
1895	 0.167506411671638 
1896	 0.166851297020912 
1897	 0.166167676448822 
1898	 0.165479496121407 
1899	 0.164814203977585 
1900	 0.164153754711151 
1901	 0.163478538393974 
1902	 0.162896782159805 
1903	 0.162413224577904 
1904	 0.161942958831787 
1905	 0.161471903324127 
1906	 0.161022067070007 
1907	 0.160555228590965 
1908	 0.160163730382919 
1909	 0.159860000014305 
1910	 0.159489989280701 
1911	 0.159110248088837 
1912	 0.158731862902641 
1913	 0.158388137817383 
1914	 0.158053398132324 
1915	 0.157791018486023 
1916	 0.157591372728348 
1917	 0.157379880547523 
1918	 0.157121554017067 
1919	 0.156952753663063 
1920	 0.156832501292229 
1921	 0.15668061375618 
1922	 0.156530559062958 
1923	 0.156403809785843 
1924	 0.156240910291672 
1925	 0.156138941645622 
1926	 0.15606515109539 
1927	 0.15595406293869 
1928	 0.155876040458679 
1929	 0.155745655298233 
1930	 0.155565619468689 
1931	 0.155510768294334 
1932	 0.155512392520905 
1933	 0.155470222234726 
1934	 0.155423074960709 
1935	 0.155418410897255 
1936	 0.155366510152817 
1937	 0.155316278338432 
1938	 0.155320167541504 
1939	 0.155325457453728 
1940	 0.155370950698853 
1941	 0.155427500605583 
1942	 0.155479207634926 
1943	 0.15551632642746 
1944	 0.155581384897232 
1945	 0.155678272247314 
1946	 0.155732408165932 
1947	 0.155771344900131 
1948	 0.155845448374748 
1949	 0.155884400010109 
1950	 0.155846238136292 
1951	 0.155978739261627 
1952	 0.156190678477287 
1953	 0.156328931450844 
1954	 0.156517848372459 
1955	 0.15659087896347 
1956	 0.156599923968315 
1957	 0.156689390540123 
1958	 0.156811311841011 
1959	 0.156927660107613 
1960	 0.157087549567223 
1961	 0.157249569892883 
1962	 0.157355844974518 
1963	 0.157485663890839 
1964	 0.157615631818771 
1965	 0.157729059457779 
1966	 0.157839834690094 
1967	 0.157920971512794 
1968	 0.158058285713196 
1969	 0.158254623413086 
1970	 0.158397480845451 
1971	 0.158532127737999 
1972	 0.158695548772812 
1973	 0.158853396773338 
1974	 0.158973082900047 
1975	 0.159176379442215 
1976	 0.15939037501812 
1977	 0.159534245729446 
1978	 0.159641802310944 
1979	 0.159735232591629 
1980	 0.159861177206039 
1981	 0.160009324550629 
1982	 0.160203367471695 
1983	 0.160395801067352 
1984	 0.160617247223854 
1985	 0.16078919172287 
1986	 0.160969123244286 
1987	 0.161088779568672 
1988	 0.161197140812874 
1989	 0.161348059773445 
1990	 0.161456108093262 
1991	 0.161581993103027 
1992	 0.161718085408211 
1993	 0.161833107471466 
1994	 0.161972373723984 
1995	 0.162141472101212 
1996	 0.162296861410141 
1997	 0.162475004792213 
1998	 0.162615805864334 
1999	 0.162707403302193 
2000	 0.162868246436119 
2001	 0.163081333041191 
2002	 0.163224503397942 
2003	 0.163364708423615 
2004	 0.163544520735741 
2005	 0.163651451468468 
2006	 0.163710817694664 
2007	 0.163813039660454 
2008	 0.163941666483879 
2009	 0.164069309830666 
2010	 0.16423299908638 
2011	 0.164358824491501 
2012	 0.164484888315201 
2013	 0.164559870958328 
2014	 0.164738193154335 
2015	 0.164859637618065 
2016	 0.164957866072655 
2017	 0.165116563439369 
2018	 0.165206223726273 
2019	 0.165305525064468 
2020	 0.165421396493912 
2021	 0.165574267506599 
2022	 0.165731906890869 
2023	 0.165931969881058 
2024	 0.166046023368835 
2025	 0.166129231452942 
2026	 0.166229784488678 
2027	 0.166283294558525 
2028	 0.166320234537125 
2029	 0.166413977742195 
2030	 0.166578114032745 
2031	 0.166729107499123 
2032	 0.166806325316429 
2033	 0.166862010955811 
2034	 0.166960120201111 
2035	 0.16706794500351 
2036	 0.167199149727821 
2037	 0.16729174554348 
2038	 0.167398735880852 
2039	 0.167461112141609 
2040	 0.167442336678505 
2041	 0.167488545179367 
2042	 0.167547136545181 
2043	 0.167634069919586 
2044	 0.167723193764687 
2045	 0.167782664299011 
2046	 0.16781947016716 
2047	 0.167857781052589 
2048	 0.167910739779472 
2049	 0.167954444885254 
2050	 0.168058201670647 
2051	 0.168214976787567 
2052	 0.168336018919945 
2053	 0.168527811765671 
2054	 0.168617516756058 
2055	 0.168591305613518 
2056	 0.168629914522171 
2057	 0.16869430243969 
2058	 0.16867695748806 
2059	 0.168691381812096 
2060	 0.168851956725121 
2061	 0.168816491961479 
2062	 0.168775141239166 
2063	 0.168863400816917 
2064	 0.16883385181427 
2065	 0.168882176280022 
2066	 0.169040977954865 
2067	 0.169145613908768 
2068	 0.169264927506447 
2069	 0.169302433729172 
2070	 0.169262647628784 
2071	 0.169277548789978 
2072	 0.169264510273933 
2073	 0.169238194823265 
2074	 0.169288113713264 
2075	 0.169385716319084 
2076	 0.169423639774323 
2077	 0.169402211904526 
2078	 0.169374078512192 
2079	 0.169356003403664 
2080	 0.169366925954819 
2081	 0.169420018792152 
2082	 0.1694106310606 
2083	 0.169420123100281 
2084	 0.169361785054207 
2085	 0.169213607907295 
2086	 0.169106438755989 
2087	 0.168962135910988 
2088	 0.168859198689461 
2089	 0.168774411082268 
2090	 0.168709248304367 
2091	 0.168641462922096 
2092	 0.168616220355034 
2093	 0.168567940592766 
2094	 0.168462291359901 
2095	 0.168336644768715 
2096	 0.168219774961472 
2097	 0.168165549635887 
2098	 0.168183177709579 
2099	 0.168107613921165 
2100	 0.168040081858635 
2101	 0.167971253395081 
2102	 0.167837128043175 
2103	 0.167732611298561 
2104	 0.167678087949753 
2105	 0.167576640844345 
2106	 0.167449846863747 
2107	 0.167281597852707 
2108	 0.167131692171097 
2109	 0.167043700814247 
2110	 0.166960015892982 
2111	 0.166866078972816 
2112	 0.166903212666512 
2113	 0.166896507143974 
2114	 0.166839584708214 
2115	 0.166767820715904 
2116	 0.166773036122322 
2117	 0.166728943586349 
2118	 0.16673532128334 
2119	 0.166836947202682 
2120	 0.166897624731064 
2121	 0.166954472661018 
2122	 0.166985526680946 
2123	 0.167014837265015 
2124	 0.167068615555763 
2125	 0.167104050517082 
2126	 0.167132392525673 
2127	 0.167185112833977 
2128	 0.167213961482048 
2129	 0.167206794023514 
2130	 0.167166963219643 
2131	 0.167102634906769 
2132	 0.167061015963554 
2133	 0.1670181453228 
2134	 0.166943192481995 
2135	 0.16690231859684 
2136	 0.166902035474777 
2137	 0.16686138510704 
2138	 0.166822150349617 
2139	 0.166756093502045 
2140	 0.166722342371941 
2141	 0.166591912508011 
2142	 0.16633677482605 
2143	 0.166147977113724 
2144	 0.16593910753727 
2145	 0.16571156680584 
2146	 0.165531128644943 
2147	 0.16540952026844 
2148	 0.165203973650932 
2149	 0.165006056427956 
2150	 0.164822667837143 
2151	 0.164537563920021 
2152	 0.164252370595932 
2153	 0.163935646414757 
2154	 0.163586229085922 
2155	 0.163221701979637 
2156	 0.162824288010597 
2157	 0.162357568740845 
2158	 0.16192989051342 
2159	 0.161500483751297 
2160	 0.16102309525013 
2161	 0.160585463047028 
2162	 0.160075411200523 
2163	 0.159514144062996 
2164	 0.158890888094902 
2165	 0.158237501978874 
2166	 0.157472088932991 
2167	 0.156676337122917 
2168	 0.155921086668968 
2169	 0.155008241534233 
2170	 0.154026865959167 
2171	 0.153126627206802 
2172	 0.152186408638954 
2173	 0.151179447770119 
2174	 0.150249153375626 
2175	 0.149150520563126 
2176	 0.147873669862747 
2177	 0.146609723567963 
2178	 0.145341709256172 
2179	 0.143954738974571 
2180	 0.142434433102608 
2181	 0.140940293669701 
2182	 0.139344841241837 
2183	 0.137825176119804 
2184	 0.136341229081154 
2185	 0.13481830060482 
2186	 0.133280381560326 
2187	 0.131763711571693 
2188	 0.130112081766129 
2189	 0.128699868917465 
2190	 0.127617254853249 
2191	 0.126419618725777 
2192	 0.1252800822258 
2193	 0.124321915209293 
2194	 0.123277001082897 
2195	 0.122434437274933 
2196	 0.121850371360779 
2197	 0.121559426188469 
2198	 0.12135224044323 
2199	 0.121414445340633 
2200	 0.121476083993912 
2201	 0.121564276516438 
2202	 0.121923297643661 
2203	 0.122478358447552 
2204	 0.12305736541748 
2205	 0.123898819088936 
2206	 0.124735631048679 
2207	 0.125548958778381 
2208	 0.126425161957741 
2209	 0.127404272556305 
2210	 0.12845703959465 
2211	 0.129623770713806 
2212	 0.130704522132874 
2213	 0.131820157170296 
2214	 0.133014723658562 
2215	 0.134108707308769 
2216	 0.135161757469177 
2217	 0.136234968900681 
2218	 0.137200266122818 
2219	 0.138171017169952 
2220	 0.139185920357704 
2221	 0.140164285898209 
2222	 0.141063183546066 
2223	 0.141845166683197 
2224	 0.142523765563965 
2225	 0.143143951892853 
2226	 0.143576472997665 
2227	 0.144143790006638 
2228	 0.144731685519218 
2229	 0.145244926214218 
2230	 0.145827859640121 
2231	 0.146300286054611 
2232	 0.146636694669724 
2233	 0.147012993693352 
2234	 0.147361323237419 
2235	 0.147701427340508 
2236	 0.148007422685623 
2237	 0.14834201335907 
2238	 0.148726791143417 
2239	 0.149026528000832 
2240	 0.14921647310257 
2241	 0.149485945701599 
2242	 0.149701535701752 
2243	 0.149873107671738 
2244	 0.150190204381943 
2245	 0.150425553321838 
2246	 0.150458574295044 
2247	 0.150615721940994 
2248	 0.150981351733208 
2249	 0.151289477944374 
2250	 0.151527181267738 
2251	 0.151795759797096 
2252	 0.151947349309921 
2253	 0.151831418275833 
2254	 0.151897490024567 
2255	 0.152063220739365 
2256	 0.152171432971954 
2257	 0.15227022767067 
2258	 0.152368739247322 
2259	 0.152498781681061 
2260	 0.152540042996407 
2261	 0.152436017990112 
2262	 0.152521520853043 
2263	 0.152654111385345 
2264	 0.152806863188744 
2265	 0.153163701295853 
2266	 0.153317645192146 
2267	 0.153394237160683 
2268	 0.153420731425285 
2269	 0.153333619236946 
2270	 0.153293639421463 
2271	 0.153284579515457 
2272	 0.153073832392693 
2273	 0.15303348004818 
2274	 0.153098493814468 
2275	 0.153055936098099 
2276	 0.153084948658943 
2277	 0.152987435460091 
2278	 0.152743324637413 
2279	 0.152689352631569 
2280	 0.1525888890028 
2281	 0.152515232563019 
2282	 0.152626022696495 
2283	 0.152584746479988 
2284	 0.152427151799202 
2285	 0.152294307947159 
2286	 0.1520616710186 
2287	 0.15180017054081 
2288	 0.151716530323029 
2289	 0.15161469578743 
2290	 0.151377841830254 
2291	 0.151167124509811 
2292	 0.150898873806 
2293	 0.150642588734627 
2294	 0.150440856814384 
2295	 0.150175705552101 
2296	 0.149833396077156 
2297	 0.149539768695831 
2298	 0.149202913045883 
2299	 0.14885838329792 
2300	 0.148596540093422 
2301	 0.148331239819527 
2302	 0.148011833429337 
2303	 0.147718578577042 
2304	 0.147474706172943 
2305	 0.147118911147118 
2306	 0.146696969866753 
2307	 0.146340519189835 
2308	 0.145968571305275 
2309	 0.145551443099976 
2310	 0.14512374997139 
2311	 0.1447494328022 
2312	 0.14448419213295 
2313	 0.144039362668991 
2314	 0.143433094024658 
2315	 0.142934963107109 
2316	 0.142401278018951 
2317	 0.141800820827484 
2318	 0.141254678368568 
2319	 0.140828385949135 
2320	 0.140352725982666 
2321	 0.139820903539658 
2322	 0.139464899897575 
2323	 0.139066323637962 
2324	 0.138450399041176 
2325	 0.137783870100975 
2326	 0.136988580226898 
2327	 0.136439383029938 
2328	 0.136176317930222 
2329	 0.135682359337807 
2330	 0.135183066129684 
2331	 0.134708076715469 
2332	 0.134138226509094 
2333	 0.133656904101372 
2334	 0.133052036166191 
2335	 0.132469564676285 
2336	 0.132061690092087 
2337	 0.131509110331535 
2338	 0.131064131855965 
2339	 0.130786091089249 
2340	 0.130343362689018 
2341	 0.129992932081223 
2342	 0.129753977060318 
2343	 0.129579365253448 
2344	 0.129476010799408 
2345	 0.129190415143967 
2346	 0.129007667303085 
2347	 0.128888934850693 
2348	 0.128672227263451 
2349	 0.128632888197899 
2350	 0.128596186637878 
2351	 0.128593936562538 
2352	 0.128650769591331 
2353	 0.128829538822174 
2354	 0.128923341631889 
2355	 0.129013955593109 
2356	 0.129157021641731 
2357	 0.129233926534653 
2358	 0.129426315426826 
2359	 0.129810810089111 
2360	 0.129959791898727 
2361	 0.130056783556938 
2362	 0.130116492509842 
2363	 0.129891917109489 
2364	 0.130125120282173 
2365	 0.130639553070068 
2366	 0.130954965949059 
2367	 0.131551831960678 
2368	 0.131733402609825 
2369	 0.131613090634346 
2370	 0.131474226713181 
2371	 0.131110727787018 
2372	 0.130913093686104 
2373	 0.130658760666847 
2374	 0.130460947751999 
2375	 0.130356475710869 
2376	 0.130213737487793 
2377	 0.129925191402435 
2378	 0.12995009124279 
2379	 0.130294010043144 
2380	 0.130338355898857 
2381	 0.130450159311295 
2382	 0.13050551712513 
2383	 0.130226314067841 
2384	 0.130272477865219 
2385	 0.13067838549614 
2386	 0.130665764212608 
2387	 0.13050851225853 
2388	 0.130411669611931 
2389	 0.129939869046211 
2390	 0.12994796037674 
2391	 0.130468904972076 
2392	 0.130528673529625 
2393	 0.130559012293816 
2394	 0.130518540740013 
2395	 0.130262047052383 
2396	 0.130007222294807 
2397	 0.129736855626106 
2398	 0.129441782832146 
2399	 0.128919452428818 
2400	 0.128583624958992 
2401	 0.128371313214302 
2402	 0.128274351358414 
2403	 0.128373488783836 
2404	 0.128243133425713 
2405	 0.128151655197144 
2406	 0.127904951572418 
2407	 0.127427324652672 
2408	 0.127000793814659 
2409	 0.12648244202137 
2410	 0.126117378473282 
2411	 0.125858291983604 
2412	 0.125452250242233 
2413	 0.125114351511002 
2414	 0.12463091313839 
2415	 0.123696431517601 
2416	 0.123348124325275 
2417	 0.123542934656143 
2418	 0.123121492564678 
2419	 0.122653894126415 
2420	 0.122252650558949 
2421	 0.121303260326385 
2422	 0.120877504348755 
2423	 0.120973721146584 
2424	 0.120860986411572 
2425	 0.12085933983326 
2426	 0.120530560612679 
2427	 0.11996454000473 
2428	 0.119757942855358 
2429	 0.119331605732441 
2430	 0.119259260594845 
2431	 0.12012592703104 
2432	 0.119737640023232 
2433	 0.118394300341606 
2434	 0.118182398378849 
2435	 0.117957048118114 
2436	 0.117702402174473 
2437	 0.118298389017582 
2438	 0.11830023676157 
2439	 0.117508664727211 
2440	 0.117320708930492 
2441	 0.117490462958813 
2442	 0.117738097906113 
2443	 0.118239909410477 
2444	 0.118211627006531 
2445	 0.118012703955173 
2446	 0.11815270036459 
2447	 0.118120260536671 
2448	 0.11801303178072 
2449	 0.11831159889698 
2450	 0.118253000080585 
2451	 0.117653705179691 
2452	 0.11745523661375 
2453	 0.117345042526722 
2454	 0.118240237236023 
2455	 0.118577815592289 
2456	 0.119148395955563 
2457	 0.119990594685078 
2458	 0.119570173323154 
2459	 0.119013354182243 
2460	 0.119278699159622 
2461	 0.119412504136562 
2462	 0.119726710021496 
2463	 0.120247952640057 
2464	 0.119712501764297 
2465	 0.11963851749897 
2466	 0.119839757680893 
2467	 0.119926624000072 
2468	 0.12051235884428 
2469	 0.120547294616699 
2470	 0.11926307529211 
2471	 0.119397513568401 
2472	 0.120689198374748 
2473	 0.121079459786415 
2474	 0.122012309730053 
2475	 0.122659735381603 
2476	 0.12236400693655 
2477	 0.122082181274891 
2478	 0.122021302580833 
2479	 0.121891655027866 
2480	 0.120968662202358 
2481	 0.120717667043209 
2482	 0.121088802814484 
2483	 0.121394649147987 
2484	 0.122374057769775 
2485	 0.12228237837553 
2486	 0.121215954422951 
2487	 0.121194332838058 
2488	 0.121035352349281 
2489	 0.120988011360168 
2490	 0.122254900634289 
2491	 0.122260950505733 
2492	 0.120975971221924 
2493	 0.120554737746716 
2494	 0.120167665183544 
2495	 0.119972914457321 
2496	 0.119869880378246 
2497	 0.120456390082836 
2498	 0.121840305626392 
2499	 0.122220292687416 
2500	 0.122949406504631 
