
Text conversion of header file \A_MEDIDAS\PROJETOS\BRASIL\BLOCO GAVIAO\JACOBINA\CANIF27\sco\CANIF27_026.10_00000.asd.ref
 -------------------------------------------------------------
                                                                                                                                                            
The instrument number was  16586/1
New ASD spectrum file: Program version = 6.00 file version = 1.00
Spectrum saved: 10/16/2018 at 10:09:53
VNIR integration time : 34
VNIR channel 1 wavelength = 350 wavelength step = 1
There were 50 samples per data value
xmin = 350 xmax= 2500
ymin= 0 ymax= 1.25
The instrument digitizes spectral values to 16 bits
SWIR1 gain was 214 offset was 2097
SWIR2 gain was 513 offset was 2267
Join between VNIR and SWIR1 was 1000 nm
Join between SWIR1 and SWIR2 was 1830 nm
Absolute Reflectance is Enabled
The Absolute Reflectance File is abs165861.ref
VNIR dark signal subtracted
50 dark measurements taken Tue Oct 16 09:52:54 2018
DCC value was 0
Data is compared to a white reference:
60 white reference measurements taken Tue Oct 16 09:53:02 2018
There was no foreoptic attached
Spectrum file is reflectance data
GPS-Latitude is S0
GPS-Longitude is E0
GPS-Altitude is 0
GPS-UTC is Wed Dec 31 17:00:00 1969

Smart Detector
Serial#  0
Signal (A)  0.000E00
Dark (A)  0.000E00
Ref (A)  0.000E00
Status  0 - Uninitialized
Gain  E-4
Averaging  0
Temp (C)  0.0
Humid (%)  0.0

Reflectance Absolute
Wavelength	CANIF27_26.10_00000.asd.ref
350	 0.262273460626602 
351	 0.271231830120087 
352	 0.272054344415665 
353	 0.272245794534683 
354	 0.277282893657684 
355	 0.27467605471611 
356	 0.278242141008377 
357	 0.280711323022842 
358	 0.273616373538971 
359	 0.272312819957733 
360	 0.275385409593582 
361	 0.278345733880997 
362	 0.276237696409225 
363	 0.27217361330986 
364	 0.274034559726715 
365	 0.280871629714966 
366	 0.279567718505859 
367	 0.278949975967407 
368	 0.280051678419113 
369	 0.28172641992569 
370	 0.281937062740326 
371	 0.282315313816071 
372	 0.282285749912262 
373	 0.28078880906105 
374	 0.280175417661667 
375	 0.282411158084869 
376	 0.285499185323715 
377	 0.283999025821686 
378	 0.283837735652924 
379	 0.284504979848862 
380	 0.284713476896286 
381	 0.283900380134583 
382	 0.286198019981384 
383	 0.288721919059753 
384	 0.287712693214417 
385	 0.289590775966644 
386	 0.291648864746094 
387	 0.292864799499512 
388	 0.294124692678452 
389	 0.295017808675766 
390	 0.295409202575684 
391	 0.295622050762177 
392	 0.296769022941589 
393	 0.29875385761261 
394	 0.299133747816086 
395	 0.296549797058105 
396	 0.29792195558548 
397	 0.299317628145218 
398	 0.300002217292786 
399	 0.301819384098053 
400	 0.302156120538712 
401	 0.301991730928421 
402	 0.302298843860626 
403	 0.30316886305809 
404	 0.303402096033096 
405	 0.303398370742798 
406	 0.303779691457748 
407	 0.303910464048386 
408	 0.304294675588608 
409	 0.304991990327835 
410	 0.305725544691086 
411	 0.306489795446396 
412	 0.306123524904251 
413	 0.304901003837585 
414	 0.305471062660217 
415	 0.30614697933197 
416	 0.306118488311768 
417	 0.30544501543045 
418	 0.306429713964462 
419	 0.306792050600052 
420	 0.306340098381042 
421	 0.306280791759491 
422	 0.307169407606125 
423	 0.308000504970551 
424	 0.308143436908722 
425	 0.307769447565079 
426	 0.307876825332642 
427	 0.308060586452484 
428	 0.307867407798767 
429	 0.308092951774597 
430	 0.308588832616806 
431	 0.309054344892502 
432	 0.309197127819061 
433	 0.309599369764328 
434	 0.310074269771576 
435	 0.310491383075714 
436	 0.310959011316299 
437	 0.311104893684387 
438	 0.31166598200798 
439	 0.313074886798859 
440	 0.313638180494308 
441	 0.314262062311172 
442	 0.31492754817009 
443	 0.315091162919998 
444	 0.315716505050659 
445	 0.31655415892601 
446	 0.31734710931778 
447	 0.318102955818176 
448	 0.318598359823227 
449	 0.318995833396912 
450	 0.31952428817749 
451	 0.320185840129852 
452	 0.320806711912155 
453	 0.321324169635773 
454	 0.321785628795624 
455	 0.322496294975281 
456	 0.32313060760498 
457	 0.323545873165131 
458	 0.324113100767136 
459	 0.324636220932007 
460	 0.325101554393768 
461	 0.325547933578491 
462	 0.325969219207764 
463	 0.326476454734802 
464	 0.327050566673279 
465	 0.327555269002914 
466	 0.327993005514145 
467	 0.328413605690002 
468	 0.328849941492081 
469	 0.329265862703323 
470	 0.329797565937042 
471	 0.330336540937424 
472	 0.330732792615891 
473	 0.331206649541855 
474	 0.331746846437454 
475	 0.332287341356277 
476	 0.332731366157532 
477	 0.333484053611755 
478	 0.334299594163895 
479	 0.334912091493607 
480	 0.335360944271088 
481	 0.33604234457016 
482	 0.3368119597435 
483	 0.33734530210495 
484	 0.33825221657753 
485	 0.339066028594971 
486	 0.339632213115692 
487	 0.340341418981552 
488	 0.340960919857025 
489	 0.341564744710922 
490	 0.342269480228424 
491	 0.343089789152145 
492	 0.343836307525635 
493	 0.344441682100296 
494	 0.344954997301102 
495	 0.345681011676788 
496	 0.346378743648529 
497	 0.346921563148499 
498	 0.347489893436432 
499	 0.348095834255219 
500	 0.348601967096329 
501	 0.348930984735489 
502	 0.349467575550079 
503	 0.350026100873947 
504	 0.350502461194992 
505	 0.350894957780838 
506	 0.351459324359894 
507	 0.352033376693726 
508	 0.352467119693756 
509	 0.352763622999191 
510	 0.353126108646393 
511	 0.353570818901062 
512	 0.354023486375809 
513	 0.354381293058395 
514	 0.354710817337036 
515	 0.355082005262375 
516	 0.355543076992035 
517	 0.35574746131897 
518	 0.355939328670502 
519	 0.356303602457047 
520	 0.35654678940773 
521	 0.356718420982361 
522	 0.356902480125427 
523	 0.357163608074188 
524	 0.357264399528503 
525	 0.357348591089249 
526	 0.357477813959122 
527	 0.357561945915222 
528	 0.357648909091949 
529	 0.357771128416061 
530	 0.357911437749863 
531	 0.357899188995361 
532	 0.357904464006424 
533	 0.357912063598633 
534	 0.357807636260986 
535	 0.357769995927811 
536	 0.357776522636414 
537	 0.357758492231369 
538	 0.357614040374756 
539	 0.357439309358597 
540	 0.357262879610062 
541	 0.357099026441574 
542	 0.356998980045319 
543	 0.356882661581039 
544	 0.356737107038498 
545	 0.356604248285294 
546	 0.356400936841965 
547	 0.356119096279144 
548	 0.355784118175507 
549	 0.355457097291946 
550	 0.355147153139114 
551	 0.354833126068115 
552	 0.354483485221863 
553	 0.354107886552811 
554	 0.353697776794434 
555	 0.353214263916016 
556	 0.35259348154068 
557	 0.352098941802979 
558	 0.351673394441605 
559	 0.351249158382416 
560	 0.350951671600342 
561	 0.3506960272789 
562	 0.350333780050278 
563	 0.349752008914948 
564	 0.349358677864075 
565	 0.348992377519608 
566	 0.348541468381882 
567	 0.348052829504013 
568	 0.347490251064301 
569	 0.346783220767975 
570	 0.34591206908226 
571	 0.345024257898331 
572	 0.344263821840286 
573	 0.343730092048645 
574	 0.34346678853035 
575	 0.343353688716888 
576	 0.343199223279953 
577	 0.342908710241318 
578	 0.342565298080444 
579	 0.342162609100342 
580	 0.341746389865875 
581	 0.341339558362961 
582	 0.340792626142502 
583	 0.340235441923141 
584	 0.339715123176575 
585	 0.339182883501053 
586	 0.338459998369217 
587	 0.337769687175751 
588	 0.337356895208359 
589	 0.337394922971725 
590	 0.33736863732338 
591	 0.337171316146851 
592	 0.336850583553314 
593	 0.33623006939888 
594	 0.335696429014206 
595	 0.335396587848663 
596	 0.335168659687042 
597	 0.334777623414993 
598	 0.334239155054092 
599	 0.333634704351425 
600	 0.333039671182632 
601	 0.332403361797333 
602	 0.33178323507309 
603	 0.331272959709167 
604	 0.330833911895752 
605	 0.330574184656143 
606	 0.330484926700592 
607	 0.330395698547363 
608	 0.330219507217407 
609	 0.329993337392807 
610	 0.329774498939514 
611	 0.329552739858627 
612	 0.329316675662994 
613	 0.329051822423935 
614	 0.328753143548965 
615	 0.328481942415237 
616	 0.328375399112701 
617	 0.328419238328934 
618	 0.328363060951233 
619	 0.328255712985992 
620	 0.328184604644775 
621	 0.328224688768387 
622	 0.328330188989639 
623	 0.328528016805649 
624	 0.328712433576584 
625	 0.328723013401031 
626	 0.328850537538528 
627	 0.329129904508591 
628	 0.32949361205101 
629	 0.329766273498535 
630	 0.330022633075714 
631	 0.330333203077316 
632	 0.330745130777359 
633	 0.3312007188797 
634	 0.331636548042297 
635	 0.332051426172256 
636	 0.332503646612167 
637	 0.333133459091187 
638	 0.333707302808762 
639	 0.334136456251144 
640	 0.334730505943298 
641	 0.335116893053055 
642	 0.335473895072937 
643	 0.336003959178925 
644	 0.33612459897995 
645	 0.336344182491302 
646	 0.336749345064163 
647	 0.337072670459747 
648	 0.33762326836586 
649	 0.338266611099243 
650	 0.338906049728394 
651	 0.339661955833435 
652	 0.340396761894226 
653	 0.341097056865692 
654	 0.341790735721588 
655	 0.342471361160278 
656	 0.343115478754044 
657	 0.343776077032089 
658	 0.344557791948318 
659	 0.345381408929825 
660	 0.346375972032547 
661	 0.347506463527679 
662	 0.348375022411346 
663	 0.349294483661652 
664	 0.350250840187073 
665	 0.351185977458954 
666	 0.352348476648331 
667	 0.353315025568008 
668	 0.354151457548141 
669	 0.355269491672516 
670	 0.356393247842789 
671	 0.357396066188812 
672	 0.358307510614395 
673	 0.359389066696167 
674	 0.360352873802185 
675	 0.361275196075439 
676	 0.362212836742401 
677	 0.362722784280777 
678	 0.363089293241501 
679	 0.363456428050995 
680	 0.363849878311157 
681	 0.364248961210251 
682	 0.36449658870697 
683	 0.364615768194199 
684	 0.364902555942535 
685	 0.365419030189514 
686	 0.366151094436646 
687	 0.367034763097763 
688	 0.367972850799561 
689	 0.369007408618927 
690	 0.369985640048981 
691	 0.370713531970978 
692	 0.371453434228897 
693	 0.372348576784134 
694	 0.373350828886032 
695	 0.374218165874481 
696	 0.3753322660923 
697	 0.376583397388458 
698	 0.377840399742126 
699	 0.379216402769089 
700	 0.380534529685974 
701	 0.381813853979111 
702	 0.383129000663757 
703	 0.384350210428238 
704	 0.385587930679321 
705	 0.38682559132576 
706	 0.387938022613525 
707	 0.389163762331009 
708	 0.39029660820961 
709	 0.391282379627228 
710	 0.392479181289673 
711	 0.393690764904022 
712	 0.394821465015411 
713	 0.395843774080276 
714	 0.396871417760849 
715	 0.397880673408508 
716	 0.398849755525589 
717	 0.399785131216049 
718	 0.400897234678268 
719	 0.401937305927277 
720	 0.402827769517899 
721	 0.403762757778168 
722	 0.404752463102341 
723	 0.40573850274086 
724	 0.406668782234192 
725	 0.407559514045715 
726	 0.408396899700165 
727	 0.409260809421539 
728	 0.410210877656937 
729	 0.411034107208252 
730	 0.411795079708099 
731	 0.412514060735703 
732	 0.413174122571945 
733	 0.413840502500534 
734	 0.41454952955246 
735	 0.415310502052307 
736	 0.41610124707222 
737	 0.416890472173691 
738	 0.417626529932022 
739	 0.418270349502563 
740	 0.418807148933411 
741	 0.419448226690292 
742	 0.420152515172958 
743	 0.420793622732162 
744	 0.421486645936966 
745	 0.422116816043854 
746	 0.422686040401459 
747	 0.42330014705658 
748	 0.4239402115345 
749	 0.424537003040314 
750	 0.425123929977417 
751	 0.425898224115372 
752	 0.426592379808426 
753	 0.427237778902054 
754	 0.427883297204971 
755	 0.428382009267807 
756	 0.428991317749023 
757	 0.429631948471069 
758	 0.430119246244431 
759	 0.430513173341751 
760	 0.43100705742836 
761	 0.431599855422974 
762	 0.43214339017868 
763	 0.432677686214447 
764	 0.433149605989456 
765	 0.43356841802597 
766	 0.43403172492981 
767	 0.434519827365875 
768	 0.434932172298431 
769	 0.435261338949203 
770	 0.435743391513824 
771	 0.43631187081337 
772	 0.436788260936737 
773	 0.437061071395874 
774	 0.437420427799225 
775	 0.437838017940521 
776	 0.438246607780457 
777	 0.438573181629181 
778	 0.438836574554443 
779	 0.439199984073639 
780	 0.439649820327759 
781	 0.440003633499146 
782	 0.440231084823608 
783	 0.440562158823013 
784	 0.441049546003342 
785	 0.441432178020477 
786	 0.441626816987991 
787	 0.441746085882187 
788	 0.441935241222382 
789	 0.44229593873024 
790	 0.442561626434326 
791	 0.442690312862396 
792	 0.442781388759613 
793	 0.443112552165985 
794	 0.443495750427246 
795	 0.443785846233368 
796	 0.443913668394089 
797	 0.444019317626953 
798	 0.444248616695404 
799	 0.444617062807083 
800	 0.445014953613281 
801	 0.445272624492645 
802	 0.44541734457016 
803	 0.445601999759674 
804	 0.446057498455048 
805	 0.446382254362106 
806	 0.446635246276855 
807	 0.446919709444046 
808	 0.447248518466949 
809	 0.447487056255341 
810	 0.447775274515152 
811	 0.448201894760132 
812	 0.448539406061172 
813	 0.448749601840973 
814	 0.448914915323257 
815	 0.449159502983093 
816	 0.449580699205399 
817	 0.449772983789444 
818	 0.449834316968918 
819	 0.450071096420288 
820	 0.450389355421066 
821	 0.450653195381165 
822	 0.45088991522789 
823	 0.451219975948334 
824	 0.451541155576706 
825	 0.451761990785599 
826	 0.451898574829102 
827	 0.452055722475052 
828	 0.452152878046036 
829	 0.452334046363831 
830	 0.452596932649612 
831	 0.45274344086647 
832	 0.453020870685577 
833	 0.453360110521317 
834	 0.453601598739624 
835	 0.453558176755905 
836	 0.453761577606201 
837	 0.453993529081345 
838	 0.454066902399063 
839	 0.454238891601563 
840	 0.454546302556992 
841	 0.45483523607254 
842	 0.454987585544586 
843	 0.455139398574829 
844	 0.455284804105759 
845	 0.455484718084335 
846	 0.455756574869156 
847	 0.455925464630127 
848	 0.456070065498352 
849	 0.456266134977341 
850	 0.456502676010132 
851	 0.456442505121231 
852	 0.456402122974396 
853	 0.456590801477432 
854	 0.457042872905731 
855	 0.457377582788467 
856	 0.457677721977234 
857	 0.457897305488586 
858	 0.457946002483368 
859	 0.457915425300598 
860	 0.458041161298752 
861	 0.458245456218719 
862	 0.458299726247787 
863	 0.458469033241272 
864	 0.458615869283676 
865	 0.458795785903931 
866	 0.45916360616684 
867	 0.459393441677094 
868	 0.459548979997635 
869	 0.459671795368195 
870	 0.459759026765823 
871	 0.459828674793243 
872	 0.460032969713211 
873	 0.460339069366455 
874	 0.460569679737091 
875	 0.46090492606163 
876	 0.461095005273819 
877	 0.461236745119095 
878	 0.461700856685638 
879	 0.46193939447403 
880	 0.462076634168625 
881	 0.462258577346802 
882	 0.462543576955795 
883	 0.462818801403046 
884	 0.462959289550781 
885	 0.463055044412613 
886	 0.463355779647827 
887	 0.463584214448929 
888	 0.46393620967865 
889	 0.464331328868866 
890	 0.46442312002182 
891	 0.464446246623993 
892	 0.464555710554123 
893	 0.464813351631165 
894	 0.465166360139847 
895	 0.465370923280716 
896	 0.465667873620987 
897	 0.466003954410553 
898	 0.466076910495758 
899	 0.466220796108246 
900	 0.466489285230637 
901	 0.466754794120789 
902	 0.466837644577026 
903	 0.46711465716362 
904	 0.46743169426918 
905	 0.467679411172867 
906	 0.467854648828506 
907	 0.468101143836975 
908	 0.468207597732544 
909	 0.468255043029785 
910	 0.468475848436356 
911	 0.468608468770981 
912	 0.46899801492691 
913	 0.469410210847855 
914	 0.469436645507813 
915	 0.469696402549744 
916	 0.470104366540909 
917	 0.470403045415878 
918	 0.470426499843597 
919	 0.470672965049744 
920	 0.470856547355652 
921	 0.471102893352509 
922	 0.471544653177261 
923	 0.471670269966125 
924	 0.471951961517334 
925	 0.472255200147629 
926	 0.472380340099335 
927	 0.472581386566162 
928	 0.472927331924438 
929	 0.473237365484238 
930	 0.473410815000534 
931	 0.473685026168823 
932	 0.473962068557739 
933	 0.474175959825516 
934	 0.474366515874863 
935	 0.474717319011688 
936	 0.475247472524643 
937	 0.475547343492508 
938	 0.47555136680603 
939	 0.475697159767151 
940	 0.47601792216301 
941	 0.476288646459579 
942	 0.476385086774826 
943	 0.476368069648743 
944	 0.476520359516144 
945	 0.476550459861755 
946	 0.476528614759445 
947	 0.476671159267426 
948	 0.476505100727081 
949	 0.476199418306351 
950	 0.47588187456131 
951	 0.475560754537582 
952	 0.474967926740646 
953	 0.47445347905159 
954	 0.473821252584457 
955	 0.472997695207596 
956	 0.47257536649704 
957	 0.472217082977295 
958	 0.471920073032379 
959	 0.471692651510239 
960	 0.47146263718605 
961	 0.471352368593216 
962	 0.471472889184952 
963	 0.471767574548721 
964	 0.472086131572723 
965	 0.472747176885605 
966	 0.473743438720703 
967	 0.474781155586243 
968	 0.47559180855751 
969	 0.476678848266602 
970	 0.477763116359711 
971	 0.47863507270813 
972	 0.479338705539703 
973	 0.480415761470795 
974	 0.481201499700546 
975	 0.481709569692612 
976	 0.482254177331924 
977	 0.483198046684265 
978	 0.483813047409058 
979	 0.48426428437233 
980	 0.484686732292175 
981	 0.485061407089233 
982	 0.485522240400314 
983	 0.485828518867493 
984	 0.485933989286423 
985	 0.485950082540512 
986	 0.486018300056458 
987	 0.486314237117767 
988	 0.486763179302216 
989	 0.487207740545273 
990	 0.4875408411026 
991	 0.487859219312668 
992	 0.488065987825394 
993	 0.488187611103058 
994	 0.488378703594208 
995	 0.488582849502563 
996	 0.488869994878769 
997	 0.489103585481644 
998	 0.48916557431221 
999	 0.489358454942703 
1000	 0.489644914865494 
1001	 0.480107456445694 
1002	 0.480242878198624 
1003	 0.480462431907654 
1004	 0.480512082576752 
1005	 0.480517834424973 
1006	 0.480525463819504 
1007	 0.480500042438507 
1008	 0.480686247348785 
1009	 0.48085817694664 
1010	 0.481117635965347 
1011	 0.481290251016617 
1012	 0.48144343495369 
1013	 0.481622844934464 
1014	 0.481817841529846 
1015	 0.481984913349152 
1016	 0.48215925693512 
1017	 0.482348620891571 
1018	 0.482473462820053 
1019	 0.482596576213837 
1020	 0.482706099748611 
1021	 0.482754558324814 
1022	 0.482865065336227 
1023	 0.482917994260788 
1024	 0.48302173614502 
1025	 0.483191758394241 
1026	 0.483339637517929 
1027	 0.483509838581085 
1028	 0.483648359775543 
1029	 0.483761757612228 
1030	 0.483892649412155 
1031	 0.484032183885574 
1032	 0.484113842248917 
1033	 0.484268069267273 
1034	 0.484349817037582 
1035	 0.484404504299164 
1036	 0.484474539756775 
1037	 0.484487056732178 
1038	 0.484538227319717 
1039	 0.484650790691376 
1040	 0.484854012727737 
1041	 0.484961122274399 
1042	 0.485048055648804 
1043	 0.485163390636444 
1044	 0.485258758068085 
1045	 0.485334813594818 
1046	 0.485411465167999 
1047	 0.48553940653801 
1048	 0.485602229833603 
1049	 0.485584557056427 
1050	 0.485551804304123 
1051	 0.48555514216423 
1052	 0.485584050416946 
1053	 0.485645890235901 
1054	 0.485725522041321 
1055	 0.485919684171677 
1056	 0.485960960388184 
1057	 0.48593208193779 
1058	 0.485927671194077 
1059	 0.485888868570328 
1060	 0.485876709222794 
1061	 0.485959410667419 
1062	 0.48604428768158 
1063	 0.486013561487198 
1064	 0.485936313867569 
1065	 0.485853105783463 
1066	 0.485754400491714 
1067	 0.485733240842819 
1068	 0.485806345939636 
1069	 0.485848158597946 
1070	 0.48592934012413 
1071	 0.485965520143509 
1072	 0.485979914665222 
1073	 0.485973417758942 
1074	 0.485997259616852 
1075	 0.486004829406738 
1076	 0.485980749130249 
1077	 0.485976994037628 
1078	 0.486056864261627 
1079	 0.486156493425369 
1080	 0.48619344830513 
1081	 0.486229330301285 
1082	 0.486250579357147 
1083	 0.486228495836258 
1084	 0.486239284276962 
1085	 0.486310601234436 
1086	 0.486365139484406 
1087	 0.486392825841904 
1088	 0.486449092626572 
1089	 0.486581861972809 
1090	 0.486621767282486 
1091	 0.486598014831543 
1092	 0.486642450094223 
1093	 0.486628770828247 
1094	 0.486666947603226 
1095	 0.48680579662323 
1096	 0.486881345510483 
1097	 0.48697230219841 
1098	 0.487017691135406 
1099	 0.487091183662415 
1100	 0.487200379371643 
1101	 0.487286299467087 
1102	 0.487356126308441 
1103	 0.487471461296082 
1104	 0.487515360116959 
1105	 0.487549722194672 
1106	 0.48760649561882 
1107	 0.487655252218246 
1108	 0.487738817930222 
1109	 0.487789481878281 
1110	 0.487844258546829 
1111	 0.487906068563461 
1112	 0.488015681505203 
1113	 0.488244086503983 
1114	 0.488416850566864 
1115	 0.488555908203125 
1116	 0.48867055773735 
1117	 0.488770395517349 
1118	 0.488800823688507 
1119	 0.488891690969467 
1120	 0.488987505435944 
1121	 0.489115297794342 
1122	 0.489250034093857 
1123	 0.489354342222214 
1124	 0.489506542682648 
1125	 0.489617526531219 
1126	 0.489699810743332 
1127	 0.489764004945755 
1128	 0.489801019430161 
1129	 0.489902347326279 
1130	 0.489949971437454 
1131	 0.489971995353699 
1132	 0.490032345056534 
1133	 0.490052938461304 
1134	 0.490111142396927 
1135	 0.490211814641953 
1136	 0.490323036909103 
1137	 0.490372955799103 
1138	 0.490383863449097 
1139	 0.490397661924362 
1140	 0.490482777357101 
1141	 0.490514427423477 
1142	 0.490565836429596 
1143	 0.490658581256866 
1144	 0.490631878376007 
1145	 0.490694165229797 
1146	 0.490824401378632 
1147	 0.490812450647354 
1148	 0.490803003311157 
1149	 0.490825712680817 
1150	 0.490803599357605 
1151	 0.490822345018387 
1152	 0.490879714488983 
1153	 0.490987449884415 
1154	 0.491072446107864 
1155	 0.491120576858521 
1156	 0.491163194179535 
1157	 0.491194725036621 
1158	 0.491210013628006 
1159	 0.49125137925148 
1160	 0.49129655957222 
1161	 0.491343557834625 
1162	 0.491395264863968 
1163	 0.491415083408356 
1164	 0.491483271121979 
1165	 0.491582185029984 
1166	 0.491629511117935 
1167	 0.491652369499207 
1168	 0.491684585809708 
1169	 0.491690814495087 
1170	 0.491694152355194 
1171	 0.491757929325104 
1172	 0.491846650838852 
1173	 0.491945564746857 
1174	 0.492054015398026 
1175	 0.492154061794281 
1176	 0.492223292589188 
1177	 0.492314845323563 
1178	 0.492366760969162 
1179	 0.492328196763992 
1180	 0.49232205748558 
1181	 0.492331117391586 
1182	 0.492354989051819 
1183	 0.492423415184021 
1184	 0.492581367492676 
1185	 0.49267566204071 
1186	 0.492793321609497 
1187	 0.492851823568344 
1188	 0.492854028940201 
1189	 0.492887228727341 
1190	 0.492930203676224 
1191	 0.492969959974289 
1192	 0.493052363395691 
1193	 0.493096709251404 
1194	 0.493137300014496 
1195	 0.493180721998215 
1196	 0.493182778358459 
1197	 0.493217825889587 
1198	 0.493249773979187 
1199	 0.493219941854477 
1200	 0.493233859539032 
1201	 0.49326890707016 
1202	 0.493274599313736 
1203	 0.493260711431503 
1204	 0.493274062871933 
1205	 0.493286281824112 
1206	 0.49328538775444 
1207	 0.493286281824112 
1208	 0.493307024240494 
1209	 0.493309140205383 
1210	 0.493297547101974 
1211	 0.493331998586655 
1212	 0.493294507265091 
1213	 0.49318590760231 
1214	 0.493133932352066 
1215	 0.493043929338455 
1216	 0.492917895317078 
1217	 0.492841511964798 
1218	 0.492723882198334 
1219	 0.49263671040535 
1220	 0.492568731307983 
1221	 0.492520868778229 
1222	 0.492491573095322 
1223	 0.492452383041382 
1224	 0.492407321929932 
1225	 0.492359817028046 
1226	 0.492302775382996 
1227	 0.492298156023026 
1228	 0.492223620414734 
1229	 0.492169290781021 
1230	 0.492126941680908 
1231	 0.492011517286301 
1232	 0.491958677768707 
1233	 0.491922229528427 
1234	 0.491812765598297 
1235	 0.49173229932785 
1236	 0.491660118103027 
1237	 0.491529762744904 
1238	 0.491354912519455 
1239	 0.491144090890884 
1240	 0.490944057703018 
1241	 0.490673124790192 
1242	 0.490438252687454 
1243	 0.490237444639206 
1244	 0.490026116371155 
1245	 0.489770442247391 
1246	 0.489596337080002 
1247	 0.489459902048111 
1248	 0.489341080188751 
1249	 0.489293694496155 
1250	 0.489289700984955 
1251	 0.489361613988876 
1252	 0.489437460899353 
1253	 0.489513963460922 
1254	 0.489684373140335 
1255	 0.489816933870316 
1256	 0.489930361509323 
1257	 0.490137010812759 
1258	 0.49027344584465 
1259	 0.490427166223526 
1260	 0.490644574165344 
1261	 0.490777969360352 
1262	 0.490852862596512 
1263	 0.490933358669281 
1264	 0.490977734327316 
1265	 0.490996688604355 
1266	 0.491004765033722 
1267	 0.490999460220337 
1268	 0.490948975086212 
1269	 0.49092110991478 
1270	 0.490900069475174 
1271	 0.490877330303192 
1272	 0.490846425294876 
1273	 0.490795016288757 
1274	 0.4906966984272 
1275	 0.490574598312378 
1276	 0.490420758724213 
1277	 0.49023225903511 
1278	 0.490087151527405 
1279	 0.489944934844971 
1280	 0.489763468503952 
1281	 0.489589273929596 
1282	 0.489364266395569 
1283	 0.489095687866211 
1284	 0.488814026117325 
1285	 0.48851352930069 
1286	 0.488183498382568 
1287	 0.487809807062149 
1288	 0.487419128417969 
1289	 0.487000554800034 
1290	 0.486584395170212 
1291	 0.486142575740814 
1292	 0.485707849264145 
1293	 0.485283821821213 
1294	 0.484876394271851 
1295	 0.484506994485855 
1296	 0.484138578176498 
1297	 0.483771115541458 
1298	 0.483409285545349 
1299	 0.483063548803329 
1300	 0.482738882303238 
1301	 0.482431858778 
1302	 0.482162624597549 
1303	 0.481875151395798 
1304	 0.481591075658798 
1305	 0.4812833070755 
1306	 0.480955481529236 
1307	 0.480652213096619 
1308	 0.480335652828217 
1309	 0.480053007602692 
1310	 0.479807138442993 
1311	 0.479560673236847 
1312	 0.479312032461166 
1313	 0.479079127311707 
1314	 0.478838831186295 
1315	 0.478659123182297 
1316	 0.478503257036209 
1317	 0.478413492441177 
1318	 0.478343665599823 
1319	 0.478259414434433 
1320	 0.478134006261826 
1321	 0.478012949228287 
1322	 0.477969795465469 
1323	 0.477949678897858 
1324	 0.477970629930496 
1325	 0.478033691644669 
1326	 0.47804394364357 
1327	 0.477993607521057 
1328	 0.478041410446167 
1329	 0.478103935718536 
1330	 0.478207975625992 
1331	 0.478390067815781 
1332	 0.478568404912949 
1333	 0.478733509778976 
1334	 0.478938162326813 
1335	 0.479198217391968 
1336	 0.479443490505219 
1337	 0.479678869247437 
1338	 0.479966700077057 
1339	 0.480332046747208 
1340	 0.480605781078339 
1341	 0.480866700410843 
1342	 0.481115430593491 
1343	 0.481308847665787 
1344	 0.481472253799438 
1345	 0.4817154109478 
1346	 0.481981039047241 
1347	 0.482169806957245 
1348	 0.482339799404144 
1349	 0.482470244169235 
1350	 0.482503682374954 
1351	 0.482502907514572 
1352	 0.482479512691498 
1353	 0.482367813587189 
1354	 0.482174158096313 
1355	 0.481964558362961 
1356	 0.48169606924057 
1357	 0.481408774852753 
1358	 0.481128126382828 
1359	 0.480742186307907 
1360	 0.480317950248718 
1361	 0.479810237884521 
1362	 0.479206025600433 
1363	 0.478566467761993 
1364	 0.477872788906097 
1365	 0.477136224508286 
1366	 0.476332873106003 
1367	 0.47553688287735 
1368	 0.474724382162094 
1369	 0.473871201276779 
1370	 0.47302520275116 
1371	 0.472154676914215 
1372	 0.471314817667007 
1373	 0.470474600791931 
1374	 0.469654411077499 
1375	 0.468852251768112 
1376	 0.467997521162033 
1377	 0.467132389545441 
1378	 0.466338455677032 
1379	 0.465401470661163 
1380	 0.464175909757614 
1381	 0.46296039223671 
1382	 0.461129248142242 
1383	 0.459123104810715 
1384	 0.456269294023514 
1385	 0.453137040138245 
1386	 0.448918789625168 
1387	 0.444134563207626 
1388	 0.438153177499771 
1389	 0.431281298398972 
1390	 0.423392564058304 
1391	 0.414302617311478 
1392	 0.404578566551209 
1393	 0.393486976623535 
1394	 0.3825723528862 
1395	 0.370598405599594 
1396	 0.359334379434586 
1397	 0.347609579563141 
1398	 0.337100774049759 
1399	 0.327060699462891 
1400	 0.317937731742859 
1401	 0.3098985850811 
1402	 0.302888661623001 
1403	 0.296798318624496 
1404	 0.291478365659714 
1405	 0.286958277225494 
1406	 0.283124029636383 
1407	 0.279897570610046 
1408	 0.277296423912048 
1409	 0.275355964899063 
1410	 0.274249255657196 
1411	 0.274257153272629 
1412	 0.2748943567276 
1413	 0.277224659919739 
1414	 0.280747413635254 
1415	 0.285655796527863 
1416	 0.292097598314285 
1417	 0.299465924501419 
1418	 0.308433681726456 
1419	 0.317509353160858 
1420	 0.327868551015854 
1421	 0.337805181741714 
1422	 0.348385870456696 
1423	 0.358217298984528 
1424	 0.368152290582657 
1425	 0.37724295258522 
1426	 0.385868281126022 
1427	 0.393770277500153 
1428	 0.401040822267532 
1429	 0.407733559608459 
1430	 0.413726091384888 
1431	 0.419243663549423 
1432	 0.42413866519928 
1433	 0.428644806146622 
1434	 0.432646989822388 
1435	 0.436176598072052 
1436	 0.439337581396103 
1437	 0.442176967859268 
1438	 0.444675236940384 
1439	 0.446850329637527 
1440	 0.44876417517662 
1441	 0.450451791286469 
1442	 0.451892524957657 
1443	 0.453146457672119 
1444	 0.454253554344177 
1445	 0.455137223005295 
1446	 0.455972373485565 
1447	 0.45665055513382 
1448	 0.457313030958176 
1449	 0.457902699708939 
1450	 0.458434671163559 
1451	 0.45888552069664 
1452	 0.459287196397781 
1453	 0.45960995554924 
1454	 0.459925711154938 
1455	 0.460190832614899 
1456	 0.460457593202591 
1457	 0.460704922676086 
1458	 0.460926920175552 
1459	 0.461134493350983 
1460	 0.461312174797058 
1461	 0.461458027362823 
1462	 0.461598694324493 
1463	 0.461702793836594 
1464	 0.461813509464264 
1465	 0.461909174919128 
1466	 0.462029993534088 
1467	 0.462175756692886 
1468	 0.46229612827301 
1469	 0.462400764226913 
1470	 0.462520211935043 
1471	 0.46262863278389 
1472	 0.462752342224121 
1473	 0.462925314903259 
1474	 0.463056236505508 
1475	 0.463172972202301 
1476	 0.463253438472748 
1477	 0.463333517313004 
1478	 0.463443011045456 
1479	 0.463568210601807 
1480	 0.463714092969894 
1481	 0.463863432407379 
1482	 0.463983833789825 
1483	 0.464094132184982 
1484	 0.464200735092163 
1485	 0.464275449514389 
1486	 0.46435883641243 
1487	 0.464454561471939 
1488	 0.464517533779144 
1489	 0.46464142203331 
1490	 0.464810132980347 
1491	 0.464943140745163 
1492	 0.465101569890976 
1493	 0.465222865343094 
1494	 0.465320944786072 
1495	 0.46539181470871 
1496	 0.465428024530411 
1497	 0.465486109256744 
1498	 0.46552512049675 
1499	 0.465583235025406 
1500	 0.465661287307739 
1501	 0.46574205160141 
1502	 0.465822219848633 
1503	 0.465893059968948 
1504	 0.465978056192398 
1505	 0.466058820486069 
1506	 0.466130942106247 
1507	 0.466199219226837 
1508	 0.466259866952896 
1509	 0.466320961713791 
1510	 0.466375052928925 
1511	 0.46644189953804 
1512	 0.466526925563812 
1513	 0.466596573591232 
1514	 0.466645568609238 
1515	 0.466720104217529 
1516	 0.46681359410286 
1517	 0.466894090175629 
1518	 0.466980338096619 
1519	 0.467059463262558 
1520	 0.467133790254593 
1521	 0.467192828655243 
1522	 0.4672512114048 
1523	 0.467307448387146 
1524	 0.467356711626053 
1525	 0.467378973960876 
1526	 0.467353761196136 
1527	 0.467384517192841 
1528	 0.467438817024231 
1529	 0.467473715543747 
1530	 0.467540591955185 
1531	 0.467605531215668 
1532	 0.467605262994766 
1533	 0.467570334672928 
1534	 0.467586278915405 
1535	 0.467618644237518 
1536	 0.467613905668259 
1537	 0.467617452144623 
1538	 0.467588514089584 
1539	 0.467529356479645 
1540	 0.467530101537704 
1541	 0.467534303665161 
1542	 0.46751680970192 
1543	 0.467505604028702 
1544	 0.467459827661514 
1545	 0.467412889003754 
1546	 0.467399448156357 
1547	 0.467406719923019 
1548	 0.46745377779007 
1549	 0.467489570379257 
1550	 0.467472344636917 
1551	 0.467449516057968 
1552	 0.467396169900894 
1553	 0.467331320047379 
1554	 0.46732285618782 
1555	 0.467324793338776 
1556	 0.46732223033905 
1557	 0.467315584421158 
1558	 0.467267721891403 
1559	 0.467223644256592 
1560	 0.467220097780228 
1561	 0.467204511165619 
1562	 0.467178225517273 
1563	 0.46714922785759 
1564	 0.467073619365692 
1565	 0.467010885477066 
1566	 0.467006742954254 
1567	 0.467001140117645 
1568	 0.466954529285431 
1569	 0.466893583536148 
1570	 0.466838538646698 
1571	 0.466733366250992 
1572	 0.466691762208939 
1573	 0.466700375080109 
1574	 0.466697514057159 
1575	 0.466703832149506 
1576	 0.466701298952103 
1577	 0.466718137264252 
1578	 0.466695874929428 
1579	 0.466654419898987 
1580	 0.466620236635208 
1581	 0.466542333364487 
1582	 0.466523289680481 
1583	 0.466547966003418 
1584	 0.466531991958618 
1585	 0.46652752161026 
1586	 0.466509431600571 
1587	 0.466459304094315 
1588	 0.466439336538315 
1589	 0.466458380222321 
1590	 0.466420590877533 
1591	 0.466346830129623 
1592	 0.466285467147827 
1593	 0.466189354658127 
1594	 0.466137796640396 
1595	 0.466125100851059 
1596	 0.466093868017197 
1597	 0.466075837612152 
1598	 0.466033399105072 
1599	 0.465983420610428 
1600	 0.465919256210327 
1601	 0.465818703174591 
1602	 0.46574267745018 
1603	 0.465661615133286 
1604	 0.465602844953537 
1605	 0.465564399957657 
1606	 0.465552389621735 
1607	 0.465571731328964 
1608	 0.465560138225555 
1609	 0.465573906898499 
1610	 0.465521633625031 
1611	 0.465407639741898 
1612	 0.465323776006699 
1613	 0.465211689472198 
1614	 0.465158045291901 
1615	 0.465139925479889 
1616	 0.465118676424026 
1617	 0.46514168381691 
1618	 0.465099215507507 
1619	 0.465042114257813 
1620	 0.464964121580124 
1621	 0.464823931455612 
1622	 0.464731246232986 
1623	 0.464641571044922 
1624	 0.464558720588684 
1625	 0.464504897594452 
1626	 0.464442372322083 
1627	 0.46438255906105 
1628	 0.464312016963959 
1629	 0.464235126972198 
1630	 0.464148670434952 
1631	 0.464053511619568 
1632	 0.463966071605682 
1633	 0.463874220848084 
1634	 0.463784694671631 
1635	 0.463697075843811 
1636	 0.463609129190445 
1637	 0.463511973619461 
1638	 0.463437527418137 
1639	 0.463376849889755 
1640	 0.463306188583374 
1641	 0.463247805833817 
1642	 0.463194847106934 
1643	 0.463153630495071 
1644	 0.46307909488678 
1645	 0.462975293397903 
1646	 0.462904751300812 
1647	 0.462812513113022 
1648	 0.462760388851166 
1649	 0.462790489196777 
1650	 0.462750792503357 
1651	 0.462665408849716 
1652	 0.462616235017776 
1653	 0.462561041116714 
1654	 0.46248322725296 
1655	 0.462433874607086 
1656	 0.462372094392776 
1657	 0.462250202894211 
1658	 0.462197512388229 
1659	 0.462187767028809 
1660	 0.462155789136887 
1661	 0.462164968252182 
1662	 0.462104469537735 
1663	 0.461993664503098 
1664	 0.461913794279099 
1665	 0.461815923452377 
1666	 0.461737066507339 
1667	 0.461647093296051 
1668	 0.461589068174362 
1669	 0.461541384458542 
1670	 0.46152138710022 
1671	 0.461532384157181 
1672	 0.461456149816513 
1673	 0.46136286854744 
1674	 0.461251437664032 
1675	 0.461063265800476 
1676	 0.460938215255737 
1677	 0.460867673158646 
1678	 0.460784077644348 
1679	 0.460743576288223 
1680	 0.460697531700134 
1681	 0.460597604513168 
1682	 0.460529237985611 
1683	 0.4604871571064 
1684	 0.460441201925278 
1685	 0.460400342941284 
1686	 0.46036359667778 
1687	 0.460328131914139 
1688	 0.460260540246964 
1689	 0.460196524858475 
1690	 0.460134148597717 
1691	 0.459995031356812 
1692	 0.459854334592819 
1693	 0.459759026765823 
1694	 0.459596514701843 
1695	 0.459429144859314 
1696	 0.459378272294998 
1697	 0.459319353103638 
1698	 0.459228485822678 
1699	 0.459236323833466 
1700	 0.45919206738472 
1701	 0.459076851606369 
1702	 0.4590665102005 
1703	 0.459026664495468 
1704	 0.458967804908752 
1705	 0.458961665630341 
1706	 0.4588643014431 
1707	 0.458763003349304 
1708	 0.458686590194702 
1709	 0.458562225103378 
1710	 0.45851269364357 
1711	 0.4584701359272 
1712	 0.458364695310593 
1713	 0.458328902721405 
1714	 0.458278059959412 
1715	 0.458148926496506 
1716	 0.45809131860733 
1717	 0.458000630140305 
1718	 0.457857400178909 
1719	 0.457785367965698 
1720	 0.457659542560577 
1721	 0.457509964704514 
1722	 0.45740669965744 
1723	 0.457347452640533 
1724	 0.457311362028122 
1725	 0.457251757383347 
1726	 0.457160979509354 
1727	 0.457047402858734 
1728	 0.456924647092819 
1729	 0.456805199384689 
1730	 0.456665992736816 
1731	 0.456519067287445 
1732	 0.456361204385757 
1733	 0.456227093935013 
1734	 0.45610910654068 
1735	 0.455947160720825 
1736	 0.455760776996613 
1737	 0.455595731735229 
1738	 0.455423444509506 
1739	 0.455251604318619 
1740	 0.455154061317444 
1741	 0.455010592937469 
1742	 0.454827487468719 
1743	 0.454683423042297 
1744	 0.454492807388306 
1745	 0.454325288534164 
1746	 0.454172015190125 
1747	 0.453999012708664 
1748	 0.453890919685364 
1749	 0.453777194023132 
1750	 0.453635931015015 
1751	 0.453491449356079 
1752	 0.453266590833664 
1753	 0.453005641698837 
1754	 0.452776879072189 
1755	 0.452559530735016 
1756	 0.452362179756165 
1757	 0.452167838811874 
1758	 0.451990604400635 
1759	 0.451845288276672 
1760	 0.451693803071976 
1761	 0.451531827449799 
1762	 0.451350957155228 
1763	 0.451167166233063 
1764	 0.450999468564987 
1765	 0.450837850570679 
1766	 0.450646817684174 
1767	 0.450428515672684 
1768	 0.450273752212524 
1769	 0.450161933898926 
1770	 0.450065940618515 
1771	 0.450066119432449 
1772	 0.450055062770844 
1773	 0.449947655200958 
1774	 0.449873924255371 
1775	 0.449746012687683 
1776	 0.449540048837662 
1777	 0.449431121349335 
1778	 0.449308604001999 
1779	 0.449336796998978 
1780	 0.44934144616127 
1781	 0.449325263500214 
1782	 0.449364006519318 
1783	 0.449315845966339 
1784	 0.44927978515625 
1785	 0.449233144521713 
1786	 0.449152618646622 
1787	 0.449110627174377 
1788	 0.449022591114044 
1789	 0.44899907708168 
1790	 0.448977142572403 
1791	 0.448883414268494 
1792	 0.448806971311569 
1793	 0.448666244745255 
1794	 0.448538362979889 
1795	 0.448456645011902 
1796	 0.448342084884644 
1797	 0.448227852582932 
1798	 0.448108673095703 
1799	 0.448041170835495 
1800	 0.448013454675674 
1801	 0.447977751493454 
1802	 0.447915554046631 
1803	 0.447750955820084 
1804	 0.447550237178802 
1805	 0.447351008653641 
1806	 0.447159290313721 
1807	 0.446989238262177 
1808	 0.446810126304626 
1809	 0.446658730506897 
1810	 0.446550637483597 
1811	 0.446449637413025 
1812	 0.446305602788925 
1813	 0.44614514708519 
1814	 0.445903390645981 
1815	 0.44567409157753 
1816	 0.445457816123962 
1817	 0.445233792066574 
1818	 0.445015400648117 
1819	 0.444831967353821 
1820	 0.444618821144104 
1821	 0.444413334131241 
1822	 0.444201171398163 
1823	 0.443910270929337 
1824	 0.443614393472672 
1825	 0.44322481751442 
1826	 0.442791521549225 
1827	 0.442430317401886 
1828	 0.441963136196136 
1829	 0.441541880369186 
1830	 0.441233903169632 
1831	 0.454674303531647 
1832	 0.454332262277603 
1833	 0.453981697559357 
1834	 0.45358619093895 
1835	 0.453289419412613 
1836	 0.453017473220825 
1837	 0.452788174152374 
1838	 0.45262423157692 
1839	 0.452483773231506 
1840	 0.452310800552368 
1841	 0.452130913734436 
1842	 0.452029794454575 
1843	 0.451867759227753 
1844	 0.451756417751312 
1845	 0.451669156551361 
1846	 0.451658666133881 
1847	 0.451681047677994 
1848	 0.451752752065659 
1849	 0.451824277639389 
1850	 0.451877355575562 
1851	 0.451944679021835 
1852	 0.451970130205154 
1853	 0.451967358589172 
1854	 0.452008754014969 
1855	 0.452056050300598 
1856	 0.452098995447159 
1857	 0.452104926109314 
1858	 0.452158212661743 
1859	 0.452150702476501 
1860	 0.452014029026031 
1861	 0.45180869102478 
1862	 0.451585918664932 
1863	 0.451339840888977 
1864	 0.451034247875214 
1865	 0.450746387243271 
1866	 0.450415372848511 
1867	 0.450050711631775 
1868	 0.449615508317947 
1869	 0.449225008487701 
1870	 0.448799848556519 
1871	 0.448280364274979 
1872	 0.447698324918747 
1873	 0.447047650814056 
1874	 0.446265310049057 
1875	 0.445405632257462 
1876	 0.444592654705048 
1877	 0.443690359592438 
1878	 0.442745983600616 
1879	 0.441706985235214 
1880	 0.440584093332291 
1881	 0.439339488744736 
1882	 0.43802997469902 
1883	 0.436631888151169 
1884	 0.43522721529007 
1885	 0.433776348829269 
1886	 0.432157278060913 
1887	 0.430556833744049 
1888	 0.428900569677353 
1889	 0.427202582359314 
1890	 0.425356835126877 
1891	 0.423493891954422 
1892	 0.421508193016052 
1893	 0.419319778680801 
1894	 0.417109042406082 
1895	 0.414909422397614 
1896	 0.412690043449402 
1897	 0.410430014133453 
1898	 0.408145219087601 
1899	 0.405977785587311 
1900	 0.403834044933319 
1901	 0.401764333248138 
1902	 0.399783581495285 
1903	 0.397940009832382 
1904	 0.396208822727203 
1905	 0.394574403762817 
1906	 0.393085539340973 
1907	 0.391784489154816 
1908	 0.390610009431839 
1909	 0.389552175998688 
1910	 0.388659596443176 
1911	 0.387945562601089 
1912	 0.387335330247879 
1913	 0.386870265007019 
1914	 0.386555552482605 
1915	 0.386315762996674 
1916	 0.386199682950974 
1917	 0.386148393154144 
1918	 0.386083841323853 
1919	 0.386080205440521 
1920	 0.386077672243118 
1921	 0.386062145233154 
1922	 0.386110782623291 
1923	 0.386225163936615 
1924	 0.386273384094238 
1925	 0.386327594518662 
1926	 0.386492073535919 
1927	 0.386586129665375 
1928	 0.386638879776001 
1929	 0.386790335178375 
1930	 0.386950373649597 
1931	 0.387080013751984 
1932	 0.387269705533981 
1933	 0.38743656873703 
1934	 0.387622863054276 
1935	 0.387734055519104 
1936	 0.387844860553741 
1937	 0.388049811124802 
1938	 0.388216078281403 
1939	 0.388306856155396 
1940	 0.38850137591362 
1941	 0.388561576604843 
1942	 0.388576060533524 
1943	 0.38877409696579 
1944	 0.388906508684158 
1945	 0.388989061117172 
1946	 0.389131307601929 
1947	 0.389347940683365 
1948	 0.389456510543823 
1949	 0.389552921056747 
1950	 0.389658331871033 
1951	 0.38979560136795 
1952	 0.389957517385483 
1953	 0.390177041292191 
1954	 0.390442311763763 
1955	 0.390556216239929 
1956	 0.390670001506805 
1957	 0.390837758779526 
1958	 0.390988826751709 
1959	 0.391142010688782 
1960	 0.391354084014893 
1961	 0.39156836271286 
1962	 0.391688704490662 
1963	 0.391904354095459 
1964	 0.392134934663773 
1965	 0.392308086156845 
1966	 0.392538577318192 
1967	 0.392720550298691 
1968	 0.392910361289978 
1969	 0.393101781606674 
1970	 0.393318444490433 
1971	 0.393556296825409 
1972	 0.39378347992897 
1973	 0.394038140773773 
1974	 0.394210278987885 
1975	 0.394451051950455 
1976	 0.394663721323013 
1977	 0.394910931587219 
1978	 0.395294785499573 
1979	 0.395540535449982 
1980	 0.395728826522827 
1981	 0.395987391471863 
1982	 0.396211743354797 
1983	 0.396480053663254 
1984	 0.39682412147522 
1985	 0.397143363952637 
1986	 0.397465288639069 
1987	 0.397801071405411 
1988	 0.398012936115265 
1989	 0.398318499326706 
1990	 0.398636043071747 
1991	 0.398875206708908 
1992	 0.399247795343399 
1993	 0.399650037288666 
1994	 0.399977803230286 
1995	 0.400229424238205 
1996	 0.400527477264404 
1997	 0.400811046361923 
1998	 0.401123762130737 
1999	 0.401422679424286 
2000	 0.401830315589905 
2001	 0.402267515659332 
2002	 0.402627617120743 
2003	 0.403006792068481 
2004	 0.40335750579834 
2005	 0.403591722249985 
2006	 0.40380585193634 
2007	 0.404097199440002 
2008	 0.40442019701004 
2009	 0.404716908931732 
2010	 0.405068576335907 
2011	 0.405392438173294 
2012	 0.405705958604813 
2013	 0.405958026647568 
2014	 0.406199246644974 
2015	 0.406431704759598 
2016	 0.406641453504562 
2017	 0.406835407018662 
2018	 0.407053768634796 
2019	 0.407332926988602 
2020	 0.407590299844742 
2021	 0.407845675945282 
2022	 0.4080810546875 
2023	 0.408330649137497 
2024	 0.408544510602951 
2025	 0.408736735582352 
2026	 0.408890783786774 
2027	 0.409001022577286 
2028	 0.409138470888138 
2029	 0.409252643585205 
2030	 0.409379452466965 
2031	 0.409569084644318 
2032	 0.409681171178818 
2033	 0.409756004810333 
2034	 0.409888207912445 
2035	 0.410014480352402 
2036	 0.410178899765015 
2037	 0.410307824611664 
2038	 0.410431981086731 
2039	 0.410496085882187 
2040	 0.410478919744492 
2041	 0.410508990287781 
2042	 0.410464853048325 
2043	 0.410616219043732 
2044	 0.410764455795288 
2045	 0.410814374685287 
2046	 0.410874217748642 
2047	 0.410923272371292 
2048	 0.410961627960205 
2049	 0.411001175642014 
2050	 0.410999357700348 
2051	 0.410952717065811 
2052	 0.410921603441238 
2053	 0.410820573568344 
2054	 0.410820931196213 
2055	 0.41090801358223 
2056	 0.410957008600235 
2057	 0.411023825407028 
2058	 0.41110423207283 
2059	 0.411157041788101 
2060	 0.411171287298203 
2061	 0.411211401224136 
2062	 0.411205768585205 
2063	 0.411131680011749 
2064	 0.411043286323547 
2065	 0.410971611738205 
2066	 0.410908788442612 
2067	 0.4107805788517 
2068	 0.410648047924042 
2069	 0.410493135452271 
2070	 0.410308390855789 
2071	 0.410038471221924 
2072	 0.409750372171402 
2073	 0.409379690885544 
2074	 0.408937931060791 
2075	 0.408518433570862 
2076	 0.408110350370407 
2077	 0.407701849937439 
2078	 0.407196015119553 
2079	 0.406605154275894 
2080	 0.405999660491943 
2081	 0.405388712882996 
2082	 0.404615670442581 
2083	 0.40373769402504 
2084	 0.402842849493027 
2085	 0.401841372251511 
2086	 0.400804132223129 
2087	 0.399768322706223 
2088	 0.398633778095245 
2089	 0.397383719682693 
2090	 0.396088480949402 
2091	 0.394809573888779 
2092	 0.393539816141129 
2093	 0.392177850008011 
2094	 0.390651822090149 
2095	 0.388998538255692 
2096	 0.38733583688736 
2097	 0.385853976011276 
2098	 0.384504467248917 
2099	 0.383076220750809 
2100	 0.381745457649231 
2101	 0.380352765321732 
2102	 0.378771871328354 
2103	 0.377424746751785 
2104	 0.376250445842743 
2105	 0.375033497810364 
2106	 0.373890042304993 
2107	 0.372741967439651 
2108	 0.371617048978806 
2109	 0.370578318834305 
2110	 0.369552373886108 
2111	 0.368544101715088 
2112	 0.367602199316025 
2113	 0.366589516401291 
2114	 0.365791708230972 
2115	 0.365203052759171 
2116	 0.364566177129745 
2117	 0.363958090543747 
2118	 0.363484174013138 
2119	 0.363054037094116 
2120	 0.362700253725052 
2121	 0.362470597028732 
2122	 0.362330496311188 
2123	 0.362278968095779 
2124	 0.362248778343201 
2125	 0.36237770318985 
2126	 0.362436056137085 
2127	 0.362445771694183 
2128	 0.362508118152618 
2129	 0.362485975027084 
2130	 0.362557619810104 
2131	 0.362673610448837 
2132	 0.362657219171524 
2133	 0.362612456083298 
2134	 0.362618505954742 
2135	 0.362389981746674 
2136	 0.362013578414917 
2137	 0.361598432064056 
2138	 0.361053675413132 
2139	 0.360422641038895 
2140	 0.359724938869476 
2141	 0.358925223350525 
2142	 0.35804757475853 
2143	 0.357037544250488 
2144	 0.355916529893875 
2145	 0.35470375418663 
2146	 0.353415608406067 
2147	 0.351932317018509 
2148	 0.350390017032623 
2149	 0.348834753036499 
2150	 0.347121804952621 
2151	 0.345252156257629 
2152	 0.343345701694489 
2153	 0.34146511554718 
2154	 0.339278668165207 
2155	 0.336887091398239 
2156	 0.334407567977905 
2157	 0.33171620965004 
2158	 0.328902065753937 
2159	 0.326020330190659 
2160	 0.323009461164474 
2161	 0.319786995649338 
2162	 0.316488057374954 
2163	 0.313157290220261 
2164	 0.309606850147247 
2165	 0.305805385112762 
2166	 0.301925182342529 
2167	 0.297662228345871 
2168	 0.293226033449173 
2169	 0.288819134235382 
2170	 0.284061849117279 
2171	 0.279162347316742 
2172	 0.274128794670105 
2173	 0.268879115581512 
2174	 0.263251841068268 
2175	 0.257804602384567 
2176	 0.252312421798706 
2177	 0.246730178594589 
2178	 0.241036295890808 
2179	 0.235408022999763 
2180	 0.229644790291786 
2181	 0.224018901586533 
2182	 0.218384206295013 
2183	 0.213022083044052 
2184	 0.207664966583252 
2185	 0.202655747532845 
2186	 0.19795273244381 
2187	 0.193408459424973 
2188	 0.189115211367607 
2189	 0.185145810246468 
2190	 0.181467831134796 
2191	 0.178125187754631 
2192	 0.175203233957291 
2193	 0.172695130109787 
2194	 0.170575797557831 
2195	 0.168801978230476 
2196	 0.167413845658302 
2197	 0.166368946433067 
2198	 0.165803760290146 
2199	 0.165779128670692 
2200	 0.16594386100769 
2201	 0.166498228907585 
2202	 0.167358949780464 
2203	 0.168552920222282 
2204	 0.169973090291023 
2205	 0.171760708093643 
2206	 0.173772141337395 
2207	 0.175974264740944 
2208	 0.178475126624107 
2209	 0.181450694799423 
2210	 0.184424698352814 
2211	 0.187518373131752 
2212	 0.190846353769302 
2213	 0.194313168525696 
2214	 0.197842985391617 
2215	 0.201615810394287 
2216	 0.205531567335129 
2217	 0.209387719631195 
2218	 0.213389664888382 
2219	 0.217394381761551 
2220	 0.221209213137627 
2221	 0.224974721670151 
2222	 0.228697925806046 
2223	 0.232288733124733 
2224	 0.235793426632881 
2225	 0.239107221364975 
2226	 0.242314741015434 
2227	 0.245323225855827 
2228	 0.248199120163918 
2229	 0.250861793756485 
2230	 0.253299087285995 
2231	 0.255662024021149 
2232	 0.257765144109726 
2233	 0.259791433811188 
2234	 0.261724144220352 
2235	 0.263627916574478 
2236	 0.265448480844498 
2237	 0.267173379659653 
2238	 0.268897622823715 
2239	 0.27039510011673 
2240	 0.271766394376755 
2241	 0.273176103830338 
2242	 0.274643540382385 
2243	 0.27597975730896 
2244	 0.277127534151077 
2245	 0.278278589248657 
2246	 0.279360383749008 
2247	 0.280284732580185 
2248	 0.281257897615433 
2249	 0.282313317060471 
2250	 0.283276051282883 
2251	 0.284144461154938 
2252	 0.28492259979248 
2253	 0.285540282726288 
2254	 0.286288291215897 
2255	 0.287014245986938 
2256	 0.287765860557556 
2257	 0.288639605045319 
2258	 0.289346992969513 
2259	 0.28992772102356 
2260	 0.290591776371002 
2261	 0.29133877158165 
2262	 0.291877388954163 
2263	 0.292279750108719 
2264	 0.292724639177322 
2265	 0.293107271194458 
2266	 0.293409198522568 
2267	 0.293773263692856 
2268	 0.294019252061844 
2269	 0.294049143791199 
2270	 0.294081598520279 
2271	 0.294044196605682 
2272	 0.294111013412476 
2273	 0.294107615947723 
2274	 0.293974608182907 
2275	 0.294005811214447 
2276	 0.29392409324646 
2277	 0.293700486421585 
2278	 0.293580591678619 
2279	 0.293286025524139 
2280	 0.292874485254288 
2281	 0.292517691850662 
2282	 0.292027175426483 
2283	 0.291308790445328 
2284	 0.290397107601166 
2285	 0.28951370716095 
2286	 0.28877517580986 
2287	 0.28803089261055 
2288	 0.287289947271347 
2289	 0.286402314901352 
2290	 0.28520679473877 
2291	 0.284084856510162 
2292	 0.283012837171555 
2293	 0.281770318746567 
2294	 0.280365794897079 
2295	 0.278961300849915 
2296	 0.277503222227097 
2297	 0.275918453931808 
2298	 0.274258643388748 
2299	 0.272550821304321 
2300	 0.270708501338959 
2301	 0.268853634595871 
2302	 0.266940385103226 
2303	 0.26505184173584 
2304	 0.263164967298508 
2305	 0.261119335889816 
2306	 0.25902247428894 
2307	 0.25695812702179 
2308	 0.254719972610474 
2309	 0.252599507570267 
2310	 0.250651776790619 
2311	 0.248506650328636 
2312	 0.246242299675941 
2313	 0.24406710267067 
2314	 0.241843700408936 
2315	 0.239622041583061 
2316	 0.237372234463692 
2317	 0.235305920243263 
2318	 0.233249574899673 
2319	 0.230977028608322 
2320	 0.22880020737648 
2321	 0.226546943187714 
2322	 0.224265098571777 
2323	 0.222165018320084 
2324	 0.219839006662369 
2325	 0.21745790541172 
2326	 0.215322270989418 
2327	 0.213209986686707 
2328	 0.211322590708733 
2329	 0.209568798542023 
2330	 0.207488849759102 
2331	 0.205379441380501 
2332	 0.203341633081436 
2333	 0.201427847146988 
2334	 0.199706137180328 
2335	 0.197847962379456 
2336	 0.196235314011574 
2337	 0.194889113306999 
2338	 0.193522319197655 
2339	 0.192381218075752 
2340	 0.191118270158768 
2341	 0.189757511019707 
2342	 0.18879933655262 
2343	 0.188022762537003 
2344	 0.187325403094292 
2345	 0.186872035264969 
2346	 0.186453700065613 
2347	 0.186043381690979 
2348	 0.185997128486633 
2349	 0.186114370822906 
2350	 0.186260804533958 
2351	 0.186523362994194 
2352	 0.186827674508095 
2353	 0.18725511431694 
2354	 0.187732025980949 
2355	 0.188187047839165 
2356	 0.188818544149399 
2357	 0.189612567424774 
2358	 0.190269187092781 
2359	 0.191080346703529 
2360	 0.191820204257965 
2361	 0.192391932010651 
2362	 0.193094536662102 
2363	 0.19397246837616 
2364	 0.194586530327797 
2365	 0.195110440254211 
2366	 0.195603549480438 
2367	 0.195982918143272 
2368	 0.196238964796066 
2369	 0.196469873189926 
2370	 0.196524694561958 
2371	 0.196252748370171 
2372	 0.196268379688263 
2373	 0.19635808467865 
2374	 0.196367129683495 
2375	 0.196500197052956 
2376	 0.196487411856651 
2377	 0.196232780814171 
2378	 0.196177840232849 
2379	 0.196262940764427 
2380	 0.196157187223434 
2381	 0.196156173944473 
2382	 0.195887267589569 
2383	 0.195186227560043 
2384	 0.194941222667694 
2385	 0.194687113165855 
2386	 0.194678962230682 
2387	 0.195271253585815 
2388	 0.195221751928329 
2389	 0.194794982671738 
2390	 0.194663509726524 
2391	 0.194411218166351 
2392	 0.194284439086914 
2393	 0.194556415081024 
2394	 0.194463133811951 
2395	 0.194074794650078 
2396	 0.19377513229847 
2397	 0.193457275629044 
2398	 0.193059608340263 
2399	 0.192614004015923 
2400	 0.19210496544838 
2401	 0.191518276929855 
2402	 0.190921753644943 
2403	 0.190377399325371 
2404	 0.18953463435173 
2405	 0.188411518931389 
2406	 0.187494188547134 
2407	 0.186484143137932 
2408	 0.185565769672394 
2409	 0.184925004839897 
2410	 0.183925002813339 
2411	 0.182633638381958 
2412	 0.181443005800247 
2413	 0.180093720555305 
2414	 0.178978130221367 
2415	 0.178095027804375 
2416	 0.176999345421791 
2417	 0.175969019532204 
2418	 0.174792990088463 
2419	 0.173186734318733 
2420	 0.172111019492149 
2421	 0.17134290933609 
2422	 0.170370370149612 
2423	 0.169663026928902 
2424	 0.168772056698799 
2425	 0.167452648282051 
2426	 0.166543945670128 
2427	 0.165975049138069 
2428	 0.165196925401688 
2429	 0.164486587047577 
2430	 0.163815855979919 
2431	 0.162857994437218 
2432	 0.162314027547836 
2433	 0.162194952368736 
2434	 0.161830112338066 
2435	 0.161636471748352 
2436	 0.16114816069603 
2437	 0.160170614719391 
2438	 0.159871473908424 
2439	 0.159878715872765 
2440	 0.159755691885948 
2441	 0.159954279661179 
2442	 0.159995555877686 
2443	 0.15974161028862 
2444	 0.159802705049515 
2445	 0.16018633544445 
2446	 0.160312563180923 
2447	 0.16030952334404 
2448	 0.160597965121269 
2449	 0.161014705896378 
2450	 0.161334782838821 
2451	 0.1617711186409 
2452	 0.162072107195854 
2453	 0.162196159362793 
2454	 0.162556663155556 
2455	 0.163036316633224 
2456	 0.163919195532799 
2457	 0.164117634296417 
2458	 0.164290890097618 
2459	 0.164832353591919 
2460	 0.165168926119804 
2461	 0.165862455964088 
2462	 0.16650353372097 
2463	 0.166945740580559 
2464	 0.167141616344452 
2465	 0.16748733818531 
2466	 0.168010577559471 
2467	 0.168450847268105 
2468	 0.168925195932388 
2469	 0.16932575404644 
2470	 0.169580951333046 
2471	 0.16993322968483 
2472	 0.170495748519897 
2473	 0.170726910233498 
2474	 0.170369312167168 
2475	 0.1707713752985 
2476	 0.171612933278084 
2477	 0.172093421220779 
2478	 0.173465341329575 
2479	 0.173750698566437 
2480	 0.172353893518448 
2481	 0.172248139977455 
2482	 0.172357186675072 
2483	 0.172618567943573 
2484	 0.174122631549835 
2485	 0.174546137452126 
2486	 0.174250587821007 
2487	 0.174127385020256 
2488	 0.173371583223343 
2489	 0.173360973596573 
2490	 0.173736572265625 
2491	 0.174144014716148 
2492	 0.175196275115013 
2493	 0.175588369369507 
2494	 0.175800606608391 
2495	 0.175747707486153 
2496	 0.174899980425835 
2497	 0.175072193145752 
2498	 0.175705015659332 
2499	 0.17595586180687 
2500	 0.17661614716053 
