
Text conversion of header file \A_MEDIDAS\PROJETOS\BRASIL\BLOCO GAVIAO\JACOBINA\CANIF27\sco\CANIF27_008.46_00002.asd.ref
 -------------------------------------------------------------
Intemperizada                                                                                                                                               
The instrument number was  16586/1
New ASD spectrum file: Program version = 6.00 file version = 1.00
Spectrum saved: 10/16/2018 at 09:58:58
VNIR integration time : 34
VNIR channel 1 wavelength = 350 wavelength step = 1
There were 50 samples per data value
xmin = 350 xmax= 2500
ymin= 0 ymax= 1.25
The instrument digitizes spectral values to 16 bits
SWIR1 gain was 214 offset was 2097
SWIR2 gain was 513 offset was 2267
Join between VNIR and SWIR1 was 1000 nm
Join between SWIR1 and SWIR2 was 1830 nm
Absolute Reflectance is Enabled
The Absolute Reflectance File is abs165861.ref
VNIR dark signal subtracted
50 dark measurements taken Tue Oct 16 09:52:54 2018
DCC value was 0
Data is compared to a white reference:
60 white reference measurements taken Tue Oct 16 09:53:02 2018
There was no foreoptic attached
Spectrum file is reflectance data
GPS-Latitude is S0
GPS-Longitude is E0
GPS-Altitude is 0
GPS-UTC is Wed Dec 31 17:00:00 1969

Smart Detector
Serial#  0
Signal (A)  0.000E00
Dark (A)  0.000E00
Ref (A)  0.000E00
Status  0 - Uninitialized
Gain  E-4
Averaging  0
Temp (C)  0.0
Humid (%)  0.0

Reflectance Absolute
Wavelength	CANIF27_8.46_00002.asd.ref
350	 0.157378524541855 
351	 0.158118784427643 
352	 0.154249712824821 
353	 0.149723917245865 
354	 0.14856344461441 
355	 0.152730539441109 
356	 0.15664766728878 
357	 0.157854646444321 
358	 0.156398877501488 
359	 0.156346991658211 
360	 0.159023836255074 
361	 0.161098197102547 
362	 0.157167807221413 
363	 0.149056851863861 
364	 0.147998631000519 
365	 0.155588015913963 
366	 0.159656926989555 
367	 0.156859830021858 
368	 0.153481543064117 
369	 0.155561149120331 
370	 0.162456333637238 
371	 0.162173926830292 
372	 0.157380253076553 
373	 0.15660785138607 
374	 0.158583745360374 
375	 0.160578697919846 
376	 0.16145832836628 
377	 0.161929041147232 
378	 0.162528574466705 
379	 0.163307338953018 
380	 0.163793951272964 
381	 0.162225738167763 
382	 0.163267239928246 
383	 0.165321469306946 
384	 0.16559873521328 
385	 0.168861880898476 
386	 0.16987432539463 
387	 0.169095546007156 
388	 0.171916082501411 
389	 0.171926692128181 
390	 0.171853065490723 
391	 0.173464596271515 
392	 0.173478215932846 
393	 0.174771592020988 
394	 0.175749480724335 
395	 0.174474060535431 
396	 0.173951998353004 
397	 0.17586624622345 
398	 0.17873041331768 
399	 0.179061874747276 
400	 0.179396286606789 
401	 0.180040240287781 
402	 0.180878072977066 
403	 0.181666433811188 
404	 0.181788057088852 
405	 0.181985810399055 
406	 0.182910695672035 
407	 0.18308262526989 
408	 0.18380232155323 
409	 0.185015186667442 
410	 0.185788854956627 
411	 0.186844244599342 
412	 0.18742573261261 
413	 0.187507793307304 
414	 0.188448950648308 
415	 0.189754337072372 
416	 0.190490692853928 
417	 0.190353557467461 
418	 0.191685497760773 
419	 0.193039789795876 
420	 0.194009706377983 
421	 0.194928005337715 
422	 0.196008592844009 
423	 0.197224959731102 
424	 0.198273316025734 
425	 0.198456764221191 
426	 0.199555143713951 
427	 0.20113942027092 
428	 0.202380895614624 
429	 0.203296005725861 
430	 0.204294487833977 
431	 0.205324187874794 
432	 0.206105172634125 
433	 0.207064256072044 
434	 0.208619460463524 
435	 0.210520818829536 
436	 0.211596861481667 
437	 0.212099626660347 
438	 0.212975636124611 
439	 0.214781820774078 
440	 0.21605184674263 
441	 0.217081815004349 
442	 0.218058109283447 
443	 0.21906803548336 
444	 0.220253333449364 
445	 0.221185564994812 
446	 0.221796676516533 
447	 0.222700208425522 
448	 0.223464146256447 
449	 0.224129796028137 
450	 0.224840715527534 
451	 0.225612431764603 
452	 0.226189061999321 
453	 0.2267175167799 
454	 0.227596685290337 
455	 0.228463634848595 
456	 0.229118838906288 
457	 0.229575738310814 
458	 0.230177000164986 
459	 0.230780974030495 
460	 0.231469079852104 
461	 0.232294172048569 
462	 0.232858508825302 
463	 0.233441740274429 
464	 0.234126806259155 
465	 0.234794601798058 
466	 0.235536605119705 
467	 0.236173138022423 
468	 0.236655309796333 
469	 0.237338662147522 
470	 0.237995237112045 
471	 0.238646745681763 
472	 0.239364758133888 
473	 0.239902332425117 
474	 0.240526735782623 
475	 0.241302371025085 
476	 0.242040708661079 
477	 0.242777809500694 
478	 0.243614971637726 
479	 0.244539976119995 
480	 0.245161101222038 
481	 0.245965927839279 
482	 0.246873706579208 
483	 0.24758006632328 
484	 0.248416900634766 
485	 0.249334171414375 
486	 0.250249445438385 
487	 0.251088589429855 
488	 0.252021104097366 
489	 0.252905339002609 
490	 0.253620445728302 
491	 0.254406601190567 
492	 0.255044341087341 
493	 0.255537956953049 
494	 0.256048679351807 
495	 0.256714105606079 
496	 0.257452875375748 
497	 0.258223026990891 
498	 0.259109318256378 
499	 0.259977400302887 
500	 0.260828256607056 
501	 0.261703819036484 
502	 0.262633860111237 
503	 0.263451993465424 
504	 0.26416352391243 
505	 0.264913529157639 
506	 0.265675902366638 
507	 0.266455441713333 
508	 0.267222553491592 
509	 0.267858862876892 
510	 0.268537789583206 
511	 0.26921620965004 
512	 0.269822537899017 
513	 0.270614862442017 
514	 0.271353989839554 
515	 0.27195206284523 
516	 0.272506415843964 
517	 0.273024559020996 
518	 0.273538678884506 
519	 0.274086713790894 
520	 0.274738788604736 
521	 0.275248616933823 
522	 0.275636941194534 
523	 0.276059001684189 
524	 0.276598304510117 
525	 0.277051389217377 
526	 0.277373790740967 
527	 0.277754068374634 
528	 0.278179794549942 
529	 0.278645604848862 
530	 0.279111266136169 
531	 0.279426634311676 
532	 0.279785692691803 
533	 0.280193299055099 
534	 0.280543208122253 
535	 0.280945599079132 
536	 0.28140327334404 
537	 0.281850546598434 
538	 0.282114595174789 
539	 0.282591819763184 
540	 0.283080726861954 
541	 0.283343702554703 
542	 0.283888012170792 
543	 0.284359365701675 
544	 0.284740805625916 
545	 0.285298824310303 
546	 0.285681694746017 
547	 0.28603133559227 
548	 0.286461859941483 
549	 0.286845088005066 
550	 0.287195146083832 
551	 0.287526726722717 
552	 0.287859410047531 
553	 0.288215577602386 
554	 0.288542300462723 
555	 0.28879451751709 
556	 0.288947522640228 
557	 0.28924697637558 
558	 0.289664149284363 
559	 0.290105938911438 
560	 0.290494829416275 
561	 0.290909856557846 
562	 0.291238129138947 
563	 0.291328549385071 
564	 0.291536629199982 
565	 0.291826844215393 
566	 0.292104601860046 
567	 0.29225480556488 
568	 0.292342185974121 
569	 0.29238173365593 
570	 0.292358785867691 
571	 0.292175471782684 
572	 0.292051047086716 
573	 0.292054414749146 
574	 0.292146652936935 
575	 0.292444258928299 
576	 0.292757540941238 
577	 0.292950809001923 
578	 0.293063640594482 
579	 0.293176293373108 
580	 0.293264210224152 
581	 0.293265461921692 
582	 0.293125241994858 
583	 0.292969256639481 
584	 0.292837202548981 
585	 0.292681664228439 
586	 0.292423963546753 
587	 0.292248070240021 
588	 0.292315661907196 
589	 0.29266831278801 
590	 0.293021559715271 
591	 0.293175309896469 
592	 0.293040841817856 
593	 0.292864710092545 
594	 0.292670905590057 
595	 0.292535722255707 
596	 0.292592406272888 
597	 0.292396128177643 
598	 0.292036473751068 
599	 0.291660279035568 
600	 0.291207522153854 
601	 0.290808409452438 
602	 0.290458887815475 
603	 0.290087819099426 
604	 0.289697349071503 
605	 0.289461016654968 
606	 0.289407134056091 
607	 0.289360225200653 
608	 0.289323180913925 
609	 0.289252996444702 
610	 0.289121776819229 
611	 0.288965910673141 
612	 0.288766771554947 
613	 0.288482546806335 
614	 0.288091093301773 
615	 0.287840485572815 
616	 0.287683397531509 
617	 0.287520110607147 
618	 0.287229061126709 
619	 0.2869493663311 
620	 0.286690056324005 
621	 0.28643673658371 
622	 0.286219418048859 
623	 0.286093950271606 
624	 0.28593111038208 
625	 0.285525470972061 
626	 0.285307645797729 
627	 0.285133212804794 
628	 0.284891277551651 
629	 0.284677267074585 
630	 0.284357517957687 
631	 0.284062504768372 
632	 0.283920705318451 
633	 0.283696800470352 
634	 0.283435195684433 
635	 0.2831671833992 
636	 0.282910168170929 
637	 0.282721251249313 
638	 0.282509654760361 
639	 0.282237678766251 
640	 0.28201150894165 
641	 0.28172293305397 
642	 0.281463295221329 
643	 0.28130766749382 
644	 0.28094094991684 
645	 0.280644953250885 
646	 0.28042408823967 
647	 0.280064463615417 
648	 0.279817759990692 
649	 0.279607325792313 
650	 0.279365748167038 
651	 0.279145389795303 
652	 0.278902560472488 
653	 0.278655737638474 
654	 0.278428494930267 
655	 0.278172582387924 
656	 0.277908563613892 
657	 0.277645707130432 
658	 0.277383267879486 
659	 0.277131348848343 
660	 0.27694496512413 
661	 0.276802986860275 
662	 0.276529401540756 
663	 0.276315420866013 
664	 0.276108026504517 
665	 0.275826543569565 
666	 0.275629192590714 
667	 0.275406181812286 
668	 0.275151550769806 
669	 0.274940937757492 
670	 0.274785429239273 
671	 0.274522602558136 
672	 0.274151474237442 
673	 0.273981899023056 
674	 0.273807227611542 
675	 0.273600220680237 
676	 0.273387104272842 
677	 0.273192405700684 
678	 0.273003160953522 
679	 0.272810190916061 
680	 0.272605299949646 
681	 0.272349148988724 
682	 0.272144615650177 
683	 0.272000461816788 
684	 0.271764844655991 
685	 0.2716343998909 
686	 0.271519601345062 
687	 0.271318197250366 
688	 0.271128982305527 
689	 0.27100682258606 
690	 0.270905077457428 
691	 0.270737320184708 
692	 0.270573258399963 
693	 0.270463824272156 
694	 0.270387053489685 
695	 0.27024233341217 
696	 0.270112633705139 
697	 0.270036786794662 
698	 0.269997775554657 
699	 0.269862085580826 
700	 0.269718408584595 
701	 0.269635111093521 
702	 0.269632607698441 
703	 0.269525408744812 
704	 0.269433587789536 
705	 0.269410669803619 
706	 0.26942577958107 
707	 0.2693832218647 
708	 0.269342094659805 
709	 0.269337326288223 
710	 0.269304871559143 
711	 0.269349783658981 
712	 0.269372820854187 
713	 0.269285619258881 
714	 0.26927924156189 
715	 0.269339829683304 
716	 0.269389897584915 
717	 0.26934951543808 
718	 0.269443720579147 
719	 0.269544631242752 
720	 0.269566118717194 
721	 0.269528269767761 
722	 0.269643187522888 
723	 0.2698615193367 
724	 0.270047903060913 
725	 0.2700015604496 
726	 0.270007640123367 
727	 0.270130932331085 
728	 0.270309299230576 
729	 0.270336151123047 
730	 0.270451605319977 
731	 0.270647883415222 
732	 0.270726680755615 
733	 0.2708360850811 
734	 0.27101081609726 
735	 0.271221399307251 
736	 0.271368324756622 
737	 0.271609604358673 
738	 0.271846175193787 
739	 0.271968722343445 
740	 0.272014856338501 
741	 0.272148996591568 
742	 0.272382467985153 
743	 0.272640496492386 
744	 0.272840857505798 
745	 0.272972643375397 
746	 0.273103326559067 
747	 0.273348987102509 
748	 0.273685783147812 
749	 0.273882746696472 
750	 0.273951232433319 
751	 0.27430272102356 
752	 0.274509310722351 
753	 0.274699807167053 
754	 0.275014013051987 
755	 0.275209069252014 
756	 0.275513708591461 
757	 0.275866806507111 
758	 0.276108682155609 
759	 0.276237487792969 
760	 0.276464074850082 
761	 0.276784896850586 
762	 0.277036517858505 
763	 0.27728533744812 
764	 0.277525514364243 
765	 0.277763217687607 
766	 0.278026551008224 
767	 0.27819699048996 
768	 0.278450936079025 
769	 0.278827577829361 
770	 0.278897851705551 
771	 0.279142260551453 
772	 0.279464364051819 
773	 0.279643505811691 
774	 0.279760718345642 
775	 0.27999684214592 
776	 0.28028529882431 
777	 0.280449002981186 
778	 0.280588030815125 
779	 0.280812650918961 
780	 0.281103163957596 
781	 0.281320363283157 
782	 0.281422048807144 
783	 0.281513541936874 
784	 0.28168261051178 
785	 0.281948417425156 
786	 0.282051473855972 
787	 0.282098978757858 
788	 0.282203644514084 
789	 0.282266527414322 
790	 0.282287687063217 
791	 0.28231942653656 
792	 0.282414495944977 
793	 0.282550662755966 
794	 0.282692939043045 
795	 0.282774448394775 
796	 0.282739728689194 
797	 0.282671988010406 
798	 0.282585620880127 
799	 0.282522767782211 
800	 0.282534956932068 
801	 0.282545000314713 
802	 0.282447576522827 
803	 0.282302886247635 
804	 0.282343983650208 
805	 0.282187044620514 
806	 0.282041788101196 
807	 0.282046645879745 
808	 0.282016545534134 
809	 0.281806826591492 
810	 0.281536638736725 
811	 0.281354069709778 
812	 0.281281441450119 
813	 0.281149715185165 
814	 0.280964463949203 
815	 0.280791193246841 
816	 0.280654639005661 
817	 0.280489146709442 
818	 0.280291676521301 
819	 0.280081480741501 
820	 0.279798239469528 
821	 0.279550671577454 
822	 0.279363989830017 
823	 0.279188305139542 
824	 0.278953045606613 
825	 0.278715968132019 
826	 0.278513312339783 
827	 0.2783342897892 
828	 0.278044134378433 
829	 0.277724057435989 
830	 0.277435332536697 
831	 0.277169466018677 
832	 0.276883810758591 
833	 0.276636630296707 
834	 0.276423186063766 
835	 0.276115417480469 
836	 0.275892436504364 
837	 0.275585323572159 
838	 0.275149047374725 
839	 0.274951279163361 
840	 0.274748116731644 
841	 0.274520963430405 
842	 0.27428063750267 
843	 0.273948341608047 
844	 0.273575782775879 
845	 0.273254871368408 
846	 0.273034930229187 
847	 0.272794216871262 
848	 0.272512465715408 
849	 0.272196859121323 
850	 0.271870493888855 
851	 0.271556317806244 
852	 0.271191030740738 
853	 0.270823568105698 
854	 0.270558953285217 
855	 0.270496219396591 
856	 0.270321786403656 
857	 0.27000293135643 
858	 0.269672036170959 
859	 0.269279360771179 
860	 0.26898530125618 
861	 0.268801152706146 
862	 0.268624812364578 
863	 0.268405199050903 
864	 0.268079996109009 
865	 0.267742425203323 
866	 0.267556101083755 
867	 0.267351984977722 
868	 0.267179369926453 
869	 0.267060458660126 
870	 0.26695442199707 
871	 0.266651540994644 
872	 0.266335994005203 
873	 0.266106098890305 
874	 0.265928208827972 
875	 0.265718340873718 
876	 0.265500962734222 
877	 0.265324831008911 
878	 0.265230387449265 
879	 0.265140205621719 
880	 0.264943867921829 
881	 0.264693468809128 
882	 0.264570325613022 
883	 0.264443188905716 
884	 0.264253437519073 
885	 0.264066874980927 
886	 0.264023810625076 
887	 0.263891488313675 
888	 0.263737410306931 
889	 0.263611167669296 
890	 0.263502597808838 
891	 0.263397455215454 
892	 0.263268053531647 
893	 0.263151556253433 
894	 0.263126999139786 
895	 0.263093709945679 
896	 0.263056069612503 
897	 0.262985467910767 
898	 0.262838274240494 
899	 0.262754321098328 
900	 0.262750267982483 
901	 0.262759417295456 
902	 0.262685269117355 
903	 0.262639194726944 
904	 0.262586265802383 
905	 0.262553811073303 
906	 0.262590348720551 
907	 0.262504041194916 
908	 0.262424260377884 
909	 0.262429058551788 
910	 0.262504070997238 
911	 0.262477397918701 
912	 0.262496024370193 
913	 0.262500882148743 
914	 0.262392222881317 
915	 0.262567639350891 
916	 0.262705951929092 
917	 0.262718707323074 
918	 0.262684851884842 
919	 0.262718379497528 
920	 0.262697070837021 
921	 0.262687921524048 
922	 0.262794643640518 
923	 0.262943804264069 
924	 0.263064056634903 
925	 0.263182997703552 
926	 0.263317048549652 
927	 0.263338595628738 
928	 0.263422071933746 
929	 0.263476699590683 
930	 0.263447374105453 
931	 0.263520032167435 
932	 0.263575345277786 
933	 0.263662457466125 
934	 0.263813614845276 
935	 0.263971924781799 
936	 0.26419124007225 
937	 0.264327555894852 
938	 0.264311730861664 
939	 0.264237225055695 
940	 0.264374315738678 
941	 0.264531970024109 
942	 0.264621824026108 
943	 0.264709562063217 
944	 0.264725863933563 
945	 0.264746695756912 
946	 0.264863789081573 
947	 0.265095293521881 
948	 0.265145629644394 
949	 0.265228450298309 
950	 0.265361368656158 
951	 0.265460401773453 
952	 0.265468597412109 
953	 0.265725344419479 
954	 0.265962541103363 
955	 0.265970885753632 
956	 0.266161143779755 
957	 0.26630362868309 
958	 0.266462683677673 
959	 0.266671657562256 
960	 0.266824305057526 
961	 0.266963362693787 
962	 0.267145425081253 
963	 0.267353385686874 
964	 0.267508417367935 
965	 0.267635077238083 
966	 0.267802834510803 
967	 0.267969787120819 
968	 0.268061757087708 
969	 0.268187075853348 
970	 0.268396824598312 
971	 0.268628895282745 
972	 0.268800765275955 
973	 0.268912851810455 
974	 0.269084900617599 
975	 0.269190758466721 
976	 0.26921746134758 
977	 0.269403398036957 
978	 0.2696912586689 
979	 0.269954800605774 
980	 0.270170837640762 
981	 0.270406305789948 
982	 0.270592480897903 
983	 0.270627379417419 
984	 0.270699203014374 
985	 0.270984441041946 
986	 0.271093815565109 
987	 0.271113455295563 
988	 0.271279811859131 
989	 0.271603256464005 
990	 0.271652638912201 
991	 0.27193409204483 
992	 0.272237628698349 
993	 0.272469371557236 
994	 0.272757411003113 
995	 0.272968500852585 
996	 0.2731594145298 
997	 0.273415237665176 
998	 0.273756682872772 
999	 0.273995220661163 
1000	 0.27432906627655 
1001	 0.261388540267944 
1002	 0.261617541313171 
1003	 0.261846482753754 
1004	 0.26206710934639 
1005	 0.262284606695175 
1006	 0.262513726949692 
1007	 0.262733668088913 
1008	 0.26297053694725 
1009	 0.263171046972275 
1010	 0.263301104307175 
1011	 0.263505697250366 
1012	 0.26370558142662 
1013	 0.263970196247101 
1014	 0.264385223388672 
1015	 0.264651089906693 
1016	 0.264862418174744 
1017	 0.265076339244843 
1018	 0.26533368229866 
1019	 0.265531033277512 
1020	 0.265701740980148 
1021	 0.265880852937698 
1022	 0.265982568264008 
1023	 0.266030967235565 
1024	 0.266132563352585 
1025	 0.26632022857666 
1026	 0.266439437866211 
1027	 0.266489148139954 
1028	 0.26660880446434 
1029	 0.266741156578064 
1030	 0.266895174980164 
1031	 0.267076343297958 
1032	 0.267250448465347 
1033	 0.267514735460281 
1034	 0.267750591039658 
1035	 0.26799613237381 
1036	 0.268301039934158 
1037	 0.268385797739029 
1038	 0.268392086029053 
1039	 0.268481254577637 
1040	 0.268534392118454 
1041	 0.268591970205307 
1042	 0.268716186285019 
1043	 0.268832325935364 
1044	 0.268904209136963 
1045	 0.268974781036377 
1046	 0.269184172153473 
1047	 0.26936873793602 
1048	 0.269560247659683 
1049	 0.269685417413712 
1050	 0.269692689180374 
1051	 0.269709646701813 
1052	 0.2696553170681 
1053	 0.269652277231216 
1054	 0.269709259271622 
1055	 0.269829988479614 
1056	 0.269920170307159 
1057	 0.270063757896423 
1058	 0.27015608549118 
1059	 0.270173341035843 
1060	 0.270219922065735 
1061	 0.270303249359131 
1062	 0.27040633559227 
1063	 0.270475417375565 
1064	 0.270576953887939 
1065	 0.270623654127121 
1066	 0.27062314748764 
1067	 0.270694673061371 
1068	 0.270750820636749 
1069	 0.270787239074707 
1070	 0.270761877298355 
1071	 0.270828902721405 
1072	 0.270921319723129 
1073	 0.27104577422142 
1074	 0.271195888519287 
1075	 0.271361708641052 
1076	 0.271465361118317 
1077	 0.271508872509003 
1078	 0.271557360887527 
1079	 0.271657109260559 
1080	 0.271811813116074 
1081	 0.271986454725266 
1082	 0.272165805101395 
1083	 0.272351205348969 
1084	 0.272453308105469 
1085	 0.272512406110764 
1086	 0.272605031728745 
1087	 0.272701472043991 
1088	 0.272766947746277 
1089	 0.272879809141159 
1090	 0.273029804229736 
1091	 0.273143887519836 
1092	 0.273266524076462 
1093	 0.273415356874466 
1094	 0.273628085851669 
1095	 0.273857593536377 
1096	 0.274112671613693 
1097	 0.274360507726669 
1098	 0.274521440267563 
1099	 0.274731636047363 
1100	 0.274944275617599 
1101	 0.275094389915466 
1102	 0.275204807519913 
1103	 0.275350570678711 
1104	 0.275456428527832 
1105	 0.275553375482559 
1106	 0.275743931531906 
1107	 0.275920391082764 
1108	 0.276084095239639 
1109	 0.276263952255249 
1110	 0.276424825191498 
1111	 0.276598483324051 
1112	 0.276770412921906 
1113	 0.276913017034531 
1114	 0.277125090360641 
1115	 0.277419805526733 
1116	 0.277656853199005 
1117	 0.277868121862412 
1118	 0.278091371059418 
1119	 0.278273105621338 
1120	 0.278390944004059 
1121	 0.278548657894135 
1122	 0.278763651847839 
1123	 0.278965801000595 
1124	 0.279084116220474 
1125	 0.279207319021225 
1126	 0.279385149478912 
1127	 0.279534339904785 
1128	 0.279709696769714 
1129	 0.279933959245682 
1130	 0.280084997415543 
1131	 0.280265033245087 
1132	 0.280504137277603 
1133	 0.280716061592102 
1134	 0.280911803245544 
1135	 0.281123340129852 
1136	 0.281275421380997 
1137	 0.28137132525444 
1138	 0.281519800424576 
1139	 0.281718283891678 
1140	 0.281947165727615 
1141	 0.282224774360657 
1142	 0.282433778047562 
1143	 0.282610416412354 
1144	 0.282820969820023 
1145	 0.283021777868271 
1146	 0.283312141895294 
1147	 0.283590972423553 
1148	 0.28379961848259 
1149	 0.284028053283691 
1150	 0.284220814704895 
1151	 0.284444481134415 
1152	 0.28467658162117 
1153	 0.284950137138367 
1154	 0.285217195749283 
1155	 0.285504817962646 
1156	 0.28582102060318 
1157	 0.286114245653152 
1158	 0.286398112773895 
1159	 0.286698997020721 
1160	 0.28696197271347 
1161	 0.287265509366989 
1162	 0.287604004144669 
1163	 0.287921786308289 
1164	 0.288299381732941 
1165	 0.288703203201294 
1166	 0.289070457220078 
1167	 0.289440453052521 
1168	 0.289803087711334 
1169	 0.290145218372345 
1170	 0.290466696023941 
1171	 0.290842890739441 
1172	 0.291244506835938 
1173	 0.291596293449402 
1174	 0.2919602394104 
1175	 0.292336791753769 
1176	 0.292687088251114 
1177	 0.293110907077789 
1178	 0.293550044298172 
1179	 0.293893784284592 
1180	 0.294247001409531 
1181	 0.294604301452637 
1182	 0.294978201389313 
1183	 0.295395523309708 
1184	 0.295913577079773 
1185	 0.296324908733368 
1186	 0.29669401049614 
1187	 0.297095537185669 
1188	 0.297460436820984 
1189	 0.297861129045486 
1190	 0.298308372497559 
1191	 0.298745840787888 
1192	 0.299170434474945 
1193	 0.299594163894653 
1194	 0.299995511770248 
1195	 0.300390928983688 
1196	 0.30077263712883 
1197	 0.301127523183823 
1198	 0.301516264677048 
1199	 0.301959067583084 
1200	 0.302384197711945 
1201	 0.30280077457428 
1202	 0.303243368864059 
1203	 0.30373015999794 
1204	 0.304142534732819 
1205	 0.304517060518265 
1206	 0.304930627346039 
1207	 0.305311143398285 
1208	 0.305720627307892 
1209	 0.306206732988358 
1210	 0.30669692158699 
1211	 0.307173073291779 
1212	 0.307608097791672 
1213	 0.308011710643768 
1214	 0.308452248573303 
1215	 0.308885037899017 
1216	 0.309309959411621 
1217	 0.309757769107819 
1218	 0.310201644897461 
1219	 0.310653477907181 
1220	 0.311126470565796 
1221	 0.311573177576065 
1222	 0.311998724937439 
1223	 0.312459081411362 
1224	 0.312926828861237 
1225	 0.313378989696503 
1226	 0.313861429691315 
1227	 0.314310729503632 
1228	 0.314665406942368 
1229	 0.315107524394989 
1230	 0.315595656633377 
1231	 0.316071540117264 
1232	 0.316600054502487 
1233	 0.317088544368744 
1234	 0.317531317472458 
1235	 0.318013668060303 
1236	 0.318513989448547 
1237	 0.319022834300995 
1238	 0.319503277540207 
1239	 0.319973856210709 
1240	 0.320426136255264 
1241	 0.320852547883987 
1242	 0.321283340454102 
1243	 0.321684330701828 
1244	 0.322133630514145 
1245	 0.322595179080963 
1246	 0.323074728250504 
1247	 0.323594659566879 
1248	 0.324126332998276 
1249	 0.324578911066055 
1250	 0.325015127658844 
1251	 0.325480490922928 
1252	 0.325902670621872 
1253	 0.32634162902832 
1254	 0.326833575963974 
1255	 0.327296584844589 
1256	 0.327768683433533 
1257	 0.328275918960571 
1258	 0.32871225476265 
1259	 0.32918107509613 
1260	 0.329649806022644 
1261	 0.330126583576202 
1262	 0.330636888742447 
1263	 0.331096231937408 
1264	 0.331509411334991 
1265	 0.331938922405243 
1266	 0.332324862480164 
1267	 0.332779437303543 
1268	 0.333311349153519 
1269	 0.333785891532898 
1270	 0.334254831075668 
1271	 0.33473065495491 
1272	 0.335173815488815 
1273	 0.335599541664124 
1274	 0.336053997278214 
1275	 0.336524993181229 
1276	 0.336997658014297 
1277	 0.337475270032883 
1278	 0.337944686412811 
1279	 0.338405638933182 
1280	 0.338896840810776 
1281	 0.339407622814178 
1282	 0.339891850948334 
1283	 0.340414524078369 
1284	 0.340879619121552 
1285	 0.341279268264771 
1286	 0.341702461242676 
1287	 0.342113196849823 
1288	 0.342540770769119 
1289	 0.343001306056976 
1290	 0.343423366546631 
1291	 0.343851327896118 
1292	 0.344221025705338 
1293	 0.344584375619888 
1294	 0.34495946764946 
1295	 0.345370918512344 
1296	 0.345812410116196 
1297	 0.346210509538651 
1298	 0.34657821059227 
1299	 0.346937358379364 
1300	 0.347320795059204 
1301	 0.347776502370834 
1302	 0.348245531320572 
1303	 0.348696947097778 
1304	 0.349175453186035 
1305	 0.349619895219803 
1306	 0.350012123584747 
1307	 0.350460588932037 
1308	 0.35088175535202 
1309	 0.351401567459106 
1310	 0.352034986019135 
1311	 0.352600067853928 
1312	 0.353197365999222 
1313	 0.353780061006546 
1314	 0.354275047779083 
1315	 0.354842215776443 
1316	 0.355457663536072 
1317	 0.356095343828201 
1318	 0.356724232435226 
1319	 0.357369273900986 
1320	 0.357995957136154 
1321	 0.358568429946899 
1322	 0.359105497598648 
1323	 0.359648376703262 
1324	 0.360168009996414 
1325	 0.360685437917709 
1326	 0.361218571662903 
1327	 0.361765831708908 
1328	 0.362289994955063 
1329	 0.362804174423218 
1330	 0.363337486982346 
1331	 0.363856762647629 
1332	 0.364392876625061 
1333	 0.364953577518463 
1334	 0.365497469902039 
1335	 0.36606952548027 
1336	 0.366582453250885 
1337	 0.367052465677261 
1338	 0.367514073848724 
1339	 0.367939591407776 
1340	 0.368360698223114 
1341	 0.368746370077133 
1342	 0.369186967611313 
1343	 0.369632661342621 
1344	 0.370029270648956 
1345	 0.370494306087494 
1346	 0.370969295501709 
1347	 0.371378093957901 
1348	 0.371781229972839 
1349	 0.372134178876877 
1350	 0.37246772646904 
1351	 0.372810244560242 
1352	 0.373165518045425 
1353	 0.373469531536102 
1354	 0.373733311891556 
1355	 0.374019175767899 
1356	 0.374281346797943 
1357	 0.374569684267044 
1358	 0.374879568815231 
1359	 0.375202864408493 
1360	 0.375543355941772 
1361	 0.375852912664413 
1362	 0.376198202371597 
1363	 0.376475691795349 
1364	 0.376690864562988 
1365	 0.376911729574203 
1366	 0.377113908529282 
1367	 0.377295672893524 
1368	 0.377477675676346 
1369	 0.377629905939102 
1370	 0.377740532159805 
1371	 0.377784192562103 
1372	 0.377781510353088 
1373	 0.377728760242462 
1374	 0.377616375684738 
1375	 0.377413243055344 
1376	 0.37713223695755 
1377	 0.376727938652039 
1378	 0.376155585050583 
1379	 0.375315308570862 
1380	 0.373955190181732 
1381	 0.372319400310516 
1382	 0.37006613612175 
1383	 0.367361456155777 
1384	 0.364084780216217 
1385	 0.360120564699173 
1386	 0.356145143508911 
1387	 0.351392060518265 
1388	 0.347320973873138 
1389	 0.342999398708344 
1390	 0.339598417282104 
1391	 0.33643913269043 
1392	 0.334213554859161 
1393	 0.332704454660416 
1394	 0.331831693649292 
1395	 0.331917524337769 
1396	 0.33214470744133 
1397	 0.333113998174667 
1398	 0.333981543779373 
1399	 0.335099220275879 
1400	 0.336236268281937 
1401	 0.337301105260849 
1402	 0.338264673948288 
1403	 0.339012235403061 
1404	 0.339637845754623 
1405	 0.340162515640259 
1406	 0.340623587369919 
1407	 0.340980350971222 
1408	 0.341273933649063 
1409	 0.341483801603317 
1410	 0.341610252857208 
1411	 0.341787695884705 
1412	 0.341894924640656 
1413	 0.342183649539948 
1414	 0.342450052499771 
1415	 0.342998594045639 
1416	 0.343687742948532 
1417	 0.344606697559357 
1418	 0.345743983983994 
1419	 0.347035527229309 
1420	 0.348581224679947 
1421	 0.350136935710907 
1422	 0.351941347122192 
1423	 0.353583961725235 
1424	 0.355295896530151 
1425	 0.356839179992676 
1426	 0.358338832855225 
1427	 0.359633803367615 
1428	 0.360783040523529 
1429	 0.361821800470352 
1430	 0.362639993429184 
1431	 0.363452792167664 
1432	 0.364196509122849 
1433	 0.364869952201843 
1434	 0.365441769361496 
1435	 0.36601722240448 
1436	 0.366570234298706 
1437	 0.367079704999924 
1438	 0.367635041475296 
1439	 0.36819452047348 
1440	 0.368724167346954 
1441	 0.369288474321365 
1442	 0.369900941848755 
1443	 0.370497733354568 
1444	 0.371118009090424 
1445	 0.371791511774063 
1446	 0.372462540864944 
1447	 0.373139470815659 
1448	 0.373847186565399 
1449	 0.374597102403641 
1450	 0.375298649072647 
1451	 0.376011371612549 
1452	 0.376699149608612 
1453	 0.377351582050323 
1454	 0.37801992893219 
1455	 0.378691554069519 
1456	 0.379341155290604 
1457	 0.379979491233826 
1458	 0.380616366863251 
1459	 0.38122770190239 
1460	 0.381869912147522 
1461	 0.382517099380493 
1462	 0.383182406425476 
1463	 0.383891642093658 
1464	 0.384560644626617 
1465	 0.385204017162323 
1466	 0.385879784822464 
1467	 0.386549264192581 
1468	 0.387225329875946 
1469	 0.38794019818306 
1470	 0.388638347387314 
1471	 0.389326840639114 
1472	 0.390008628368378 
1473	 0.390690624713898 
1474	 0.391363024711609 
1475	 0.392030894756317 
1476	 0.392665892839432 
1477	 0.393325716257095 
1478	 0.393988519906998 
1479	 0.394610196352005 
1480	 0.395271211862564 
1481	 0.395924657583237 
1482	 0.396540284156799 
1483	 0.397200882434845 
1484	 0.397844552993774 
1485	 0.398426085710526 
1486	 0.399014890193939 
1487	 0.399577885866165 
1488	 0.40009269118309 
1489	 0.400597214698792 
1490	 0.401105970144272 
1491	 0.401635020971298 
1492	 0.402142822742462 
1493	 0.402630269527435 
1494	 0.403131544589996 
1495	 0.4035983979702 
1496	 0.404013186693192 
1497	 0.404447555541992 
1498	 0.404898822307587 
1499	 0.405310928821564 
1500	 0.405690938234329 
1501	 0.406080305576324 
1502	 0.406480699777603 
1503	 0.406815618276596 
1504	 0.407101154327393 
1505	 0.407429069280624 
1506	 0.407717406749725 
1507	 0.408041626214981 
1508	 0.408446878194809 
1509	 0.408764600753784 
1510	 0.409011006355286 
1511	 0.409319698810577 
1512	 0.409625798463821 
1513	 0.409940361976624 
1514	 0.410311341285706 
1515	 0.410627841949463 
1516	 0.410882949829102 
1517	 0.411194831132889 
1518	 0.411515802145004 
1519	 0.411851435899735 
1520	 0.412238270044327 
1521	 0.412591695785522 
1522	 0.412933021783829 
1523	 0.413275867700577 
1524	 0.413609445095062 
1525	 0.413937389850616 
1526	 0.414238184690475 
1527	 0.414580911397934 
1528	 0.414968401193619 
1529	 0.415318459272385 
1530	 0.415674477815628 
1531	 0.416017770767212 
1532	 0.416345864534378 
1533	 0.416679203510284 
1534	 0.417064249515533 
1535	 0.417490661144257 
1536	 0.417891025543213 
1537	 0.41825333237648 
1538	 0.418593436479568 
1539	 0.418938189744949 
1540	 0.419334173202515 
1541	 0.419741958379745 
1542	 0.4201440513134 
1543	 0.420566231012344 
1544	 0.420925170183182 
1545	 0.421260088682175 
1546	 0.421697497367859 
1547	 0.422143846750259 
1548	 0.422581255435944 
1549	 0.423075377941132 
1550	 0.423512130975723 
1551	 0.423897206783295 
1552	 0.424333453178406 
1553	 0.424794048070908 
1554	 0.425257325172424 
1555	 0.425737082958221 
1556	 0.426232218742371 
1557	 0.426719695329666 
1558	 0.4272101521492 
1559	 0.427710622549057 
1560	 0.428149491548538 
1561	 0.428576737642288 
1562	 0.429085522890091 
1563	 0.429631114006042 
1564	 0.430187553167343 
1565	 0.430736392736435 
1566	 0.431210815906525 
1567	 0.431673467159271 
1568	 0.432184278964996 
1569	 0.432721018791199 
1570	 0.433245778083801 
1571	 0.433795660734177 
1572	 0.434329777956009 
1573	 0.434839725494385 
1574	 0.435389906167984 
1575	 0.435973465442657 
1576	 0.436525166034698 
1577	 0.437087684869766 
1578	 0.437617242336273 
1579	 0.438104659318924 
1580	 0.438638836145401 
1581	 0.439181327819824 
1582	 0.439710289239883 
1583	 0.440259754657745 
1584	 0.440791308879852 
1585	 0.44127294421196 
1586	 0.441831648349762 
1587	 0.442442566156387 
1588	 0.443018943071365 
1589	 0.443636924028397 
1590	 0.444200843572617 
1591	 0.444704085588455 
1592	 0.445246011018753 
1593	 0.445802330970764 
1594	 0.446327924728394 
1595	 0.44683438539505 
1596	 0.447383135557175 
1597	 0.447931557893753 
1598	 0.448467403650284 
1599	 0.449032038450241 
1600	 0.449592113494873 
1601	 0.450123190879822 
1602	 0.450673580169678 
1603	 0.451254427433014 
1604	 0.451815068721771 
1605	 0.452365666627884 
1606	 0.452919542789459 
1607	 0.45350369811058 
1608	 0.454023092985153 
1609	 0.454491972923279 
1610	 0.454972296953201 
1611	 0.455408781766891 
1612	 0.455891966819763 
1613	 0.456406205892563 
1614	 0.456908792257309 
1615	 0.45739284157753 
1616	 0.457929968833923 
1617	 0.458517253398895 
1618	 0.459059566259384 
1619	 0.45963129401207 
1620	 0.460170596837997 
1621	 0.460632413625717 
1622	 0.461159318685532 
1623	 0.461737871170044 
1624	 0.462267279624939 
1625	 0.462800711393356 
1626	 0.463312685489655 
1627	 0.463805228471756 
1628	 0.464268058538437 
1629	 0.464675724506378 
1630	 0.465159147977829 
1631	 0.465640336275101 
1632	 0.466142416000366 
1633	 0.46673309803009 
1634	 0.467242747545242 
1635	 0.467741221189499 
1636	 0.468189656734467 
1637	 0.468551814556122 
1638	 0.468984961509705 
1639	 0.469425827264786 
1640	 0.469836264848709 
1641	 0.470261991024017 
1642	 0.470705777406693 
1643	 0.471127718687058 
1644	 0.47155773639679 
1645	 0.472039222717285 
1646	 0.472482293844223 
1647	 0.47284209728241 
1648	 0.473273813724518 
1649	 0.473782628774643 
1650	 0.47422206401825 
1651	 0.474660754203796 
1652	 0.475094467401505 
1653	 0.475450038909912 
1654	 0.475873529911041 
1655	 0.476377069950104 
1656	 0.476812541484833 
1657	 0.477246403694153 
1658	 0.477643132209778 
1659	 0.477954477071762 
1660	 0.478341668844223 
1661	 0.478776812553406 
1662	 0.479153454303741 
1663	 0.479543536901474 
1664	 0.479902863502502 
1665	 0.48017492890358 
1666	 0.480553776025772 
1667	 0.480974346399307 
1668	 0.481430143117905 
1669	 0.481863975524902 
1670	 0.48227933049202 
1671	 0.482672065496445 
1672	 0.483034193515778 
1673	 0.483438283205032 
1674	 0.483849972486496 
1675	 0.484245389699936 
1676	 0.484652698040009 
1677	 0.485061407089233 
1678	 0.485430389642715 
1679	 0.485755622386932 
1680	 0.486100316047668 
1681	 0.486443519592285 
1682	 0.486796855926514 
1683	 0.487186938524246 
1684	 0.487529754638672 
1685	 0.487862199544907 
1686	 0.488227635622025 
1687	 0.488611400127411 
1688	 0.489000260829926 
1689	 0.489318549633026 
1690	 0.489615648984909 
1691	 0.489888817071915 
1692	 0.490134030580521 
1693	 0.490464925765991 
1694	 0.490801960229874 
1695	 0.491096138954163 
1696	 0.491425424814224 
1697	 0.491818606853485 
1698	 0.4922234416008 
1699	 0.49260026216507 
1700	 0.492988854646683 
1701	 0.493326753377914 
1702	 0.493619978427887 
1703	 0.493943214416504 
1704	 0.494275361299515 
1705	 0.494583338499069 
1706	 0.49484783411026 
1707	 0.495133757591248 
1708	 0.49541637301445 
1709	 0.495650708675385 
1710	 0.495913088321686 
1711	 0.496165066957474 
1712	 0.496415317058563 
1713	 0.496734350919724 
1714	 0.497045487165451 
1715	 0.497328162193298 
1716	 0.497603982686996 
1717	 0.497842758893967 
1718	 0.498085528612137 
1719	 0.498315632343292 
1720	 0.498512804508209 
1721	 0.498717397451401 
1722	 0.498878121376038 
1723	 0.499105513095856 
1724	 0.499415099620819 
1725	 0.499667912721634 
1726	 0.499906748533249 
1727	 0.500131905078888 
1728	 0.500324308872223 
1729	 0.500513672828674 
1730	 0.500726103782654 
1731	 0.500878155231476 
1732	 0.500957012176514 
1733	 0.501078486442566 
1734	 0.501196265220642 
1735	 0.501315712928772 
1736	 0.501422524452209 
1737	 0.501572906970978 
1738	 0.501769959926605 
1739	 0.501967966556549 
1740	 0.502157390117645 
1741	 0.502291262149811 
1742	 0.502334237098694 
1743	 0.502407789230347 
1744	 0.502582907676697 
1745	 0.502697706222534 
1746	 0.5028275847435 
1747	 0.502966105937958 
1748	 0.502972543239594 
1749	 0.503029465675354 
1750	 0.503102838993073 
1751	 0.503198206424713 
1752	 0.503381073474884 
1753	 0.503474295139313 
1754	 0.5035560131073 
1755	 0.503625690937042 
1756	 0.503610789775848 
1757	 0.503668308258057 
1758	 0.503751218318939 
1759	 0.503789603710175 
1760	 0.503883183002472 
1761	 0.503947913646698 
1762	 0.503973007202148 
1763	 0.50403493642807 
1764	 0.504011988639832 
1765	 0.504025816917419 
1766	 0.504109561443329 
1767	 0.504104375839233 
1768	 0.50415301322937 
1769	 0.504199147224426 
1770	 0.504173099994659 
1771	 0.504252672195435 
1772	 0.504361629486084 
1773	 0.504404902458191 
1774	 0.50446492433548 
1775	 0.504463613033295 
1776	 0.504368364810944 
1777	 0.504293262958527 
1778	 0.504296541213989 
1779	 0.504373610019684 
1780	 0.504478812217712 
1781	 0.504566311836243 
1782	 0.50462794303894 
1783	 0.504658401012421 
1784	 0.50465589761734 
1785	 0.504664361476898 
1786	 0.504655301570892 
1787	 0.504569172859192 
1788	 0.504477441310883 
1789	 0.504416346549988 
1790	 0.50437593460083 
1791	 0.504436910152435 
1792	 0.50453394651413 
1793	 0.504540681838989 
1794	 0.504476606845856 
1795	 0.50440502166748 
1796	 0.504358410835266 
1797	 0.504334330558777 
1798	 0.504364788532257 
1799	 0.504373550415039 
1800	 0.504298150539398 
1801	 0.504265189170837 
1802	 0.504258692264557 
1803	 0.504222214221954 
1804	 0.504210948944092 
1805	 0.504159033298492 
1806	 0.504040479660034 
1807	 0.503943562507629 
1808	 0.503886044025421 
1809	 0.503816485404968 
1810	 0.503694117069244 
1811	 0.503486037254334 
1812	 0.503335952758789 
1813	 0.50320440530777 
1814	 0.503080487251282 
1815	 0.502973914146423 
1816	 0.502885758876801 
1817	 0.502723455429077 
1818	 0.502627849578857 
1819	 0.502581417560577 
1820	 0.502498984336853 
1821	 0.502468943595886 
1822	 0.502484917640686 
1823	 0.502515017986298 
1824	 0.50253564119339 
1825	 0.502525866031647 
1826	 0.502444088459015 
1827	 0.502274453639984 
1828	 0.502083003520966 
1829	 0.501941680908203 
1830	 0.501755177974701 
1831	 0.515201091766357 
1832	 0.514988005161285 
1833	 0.514762282371521 
1834	 0.514603793621063 
1835	 0.514350473880768 
1836	 0.514028131961823 
1837	 0.51367861032486 
1838	 0.513289153575897 
1839	 0.512875139713287 
1840	 0.512359917163849 
1841	 0.51183408498764 
1842	 0.51129287481308 
1843	 0.510648608207703 
1844	 0.510026037693024 
1845	 0.509436011314392 
1846	 0.508753657341003 
1847	 0.50800758600235 
1848	 0.507259368896484 
1849	 0.506462395191193 
1850	 0.505664765834808 
1851	 0.50481390953064 
1852	 0.503998696804047 
1853	 0.503149032592773 
1854	 0.502230107784271 
1855	 0.50131756067276 
1856	 0.500383138656616 
1857	 0.499427407979965 
1858	 0.498459935188293 
1859	 0.497469067573547 
1860	 0.496479094028473 
1861	 0.495482742786407 
1862	 0.494354963302612 
1863	 0.493230432271957 
1864	 0.492049843072891 
1865	 0.490757197141647 
1866	 0.489412158727646 
1867	 0.488028258085251 
1868	 0.486525595188141 
1869	 0.485002219676971 
1870	 0.483399093151093 
1871	 0.481588304042816 
1872	 0.479779660701752 
1873	 0.477835983037949 
1874	 0.47567555308342 
1875	 0.473549515008926 
1876	 0.471337020397186 
1877	 0.46903657913208 
1878	 0.466601133346558 
1879	 0.464237868785858 
1880	 0.461767703294754 
1881	 0.459200710058212 
1882	 0.456687539815903 
1883	 0.453909575939178 
1884	 0.450933545827866 
1885	 0.447947412729263 
1886	 0.444759100675583 
1887	 0.441482305526733 
1888	 0.438130170106888 
1889	 0.434748768806458 
1890	 0.431171089410782 
1891	 0.427480906248093 
1892	 0.423773348331451 
1893	 0.419937461614609 
1894	 0.416059464216232 
1895	 0.412183046340942 
1896	 0.408255726099014 
1897	 0.404320329427719 
1898	 0.400484710931778 
1899	 0.396839827299118 
1900	 0.393291026353836 
1901	 0.389874011278152 
1902	 0.386737316846848 
1903	 0.383871555328369 
1904	 0.381232380867004 
1905	 0.378888875246048 
1906	 0.376869171857834 
1907	 0.375066936016083 
1908	 0.37347811460495 
1909	 0.37224093079567 
1910	 0.371234089136124 
1911	 0.370493322610855 
1912	 0.369941502809525 
1913	 0.369628310203552 
1914	 0.369419693946838 
1915	 0.36935219168663 
1916	 0.369450956583023 
1917	 0.369628071784973 
1918	 0.369869381189346 
1919	 0.370140314102173 
1920	 0.370416581630707 
1921	 0.370701253414154 
1922	 0.371010810136795 
1923	 0.371341288089752 
1924	 0.371647000312805 
1925	 0.372004121541977 
1926	 0.372391760349274 
1927	 0.372751593589783 
1928	 0.373149216175079 
1929	 0.373540431261063 
1930	 0.373921573162079 
1931	 0.374251693487167 
1932	 0.374482452869415 
1933	 0.374734342098236 
1934	 0.374931663274765 
1935	 0.375139027833939 
1936	 0.375428289175034 
1937	 0.375767916440964 
1938	 0.375996083021164 
1939	 0.376123785972595 
1940	 0.376244068145752 
1941	 0.37631368637085 
1942	 0.376433998346329 
1943	 0.376608192920685 
1944	 0.37673544883728 
1945	 0.376809924840927 
1946	 0.376943528652191 
1947	 0.37706533074379 
1948	 0.37724843621254 
1949	 0.377503573894501 
1950	 0.377735882997513 
1951	 0.377918690443039 
1952	 0.378060579299927 
1953	 0.378234893083572 
1954	 0.378515034914017 
1955	 0.3788241147995 
1956	 0.379105508327484 
1957	 0.379402726888657 
1958	 0.379671812057495 
1959	 0.379959046840668 
1960	 0.380236208438873 
1961	 0.380628615617752 
1962	 0.380978614091873 
1963	 0.381236344575882 
1964	 0.381501078605652 
1965	 0.381687551736832 
1966	 0.381892889738083 
1967	 0.382188200950623 
1968	 0.3824283182621 
1969	 0.382694572210312 
1970	 0.382924288511276 
1971	 0.383068531751633 
1972	 0.383244723081589 
1973	 0.383413940668106 
1974	 0.383633971214294 
1975	 0.383830279111862 
1976	 0.384087651968002 
1977	 0.38435560464859 
1978	 0.384548902511597 
1979	 0.384692132472992 
1980	 0.384926974773407 
1981	 0.385210782289505 
1982	 0.385493248701096 
1983	 0.385870456695557 
1984	 0.386392682790756 
1985	 0.386844575405121 
1986	 0.387313038110733 
1987	 0.38779690861702 
1988	 0.388239979743958 
1989	 0.38867723941803 
1990	 0.389145135879517 
1991	 0.38964769244194 
1992	 0.390190422534943 
1993	 0.390796512365341 
1994	 0.391399413347244 
1995	 0.392017066478729 
1996	 0.392663031816483 
1997	 0.393318951129913 
1998	 0.394015908241272 
1999	 0.394731014966965 
2000	 0.395529359579086 
2001	 0.396353751420975 
2002	 0.397190511226654 
2003	 0.398025423288345 
2004	 0.398856073617935 
2005	 0.399748474359512 
2006	 0.400688856840134 
2007	 0.401665955781937 
2008	 0.402699947357178 
2009	 0.403785049915314 
2010	 0.40492457151413 
2011	 0.406086146831512 
2012	 0.407330930233002 
2013	 0.408535152673721 
2014	 0.409764319658279 
2015	 0.410933643579483 
2016	 0.412095189094543 
2017	 0.413433790206909 
2018	 0.414802044630051 
2019	 0.416241109371185 
2020	 0.417613089084625 
2021	 0.418969392776489 
2022	 0.420351952314377 
2023	 0.421734541654587 
2024	 0.4230677485466 
2025	 0.424436539411545 
2026	 0.425782412290573 
2027	 0.42705300450325 
2028	 0.428330957889557 
2029	 0.429724514484406 
2030	 0.431107372045517 
2031	 0.43242546916008 
2032	 0.433777004480362 
2033	 0.43518254160881 
2034	 0.436526358127594 
2035	 0.437824457883835 
2036	 0.439147859811783 
2037	 0.440431296825409 
2038	 0.441592901945114 
2039	 0.442802339792252 
2040	 0.4441097676754 
2041	 0.445265501737595 
2042	 0.446315348148346 
2043	 0.44738557934761 
2044	 0.448412537574768 
2045	 0.449409574270248 
2046	 0.450419396162033 
2047	 0.451499074697495 
2048	 0.452459454536438 
2049	 0.453317672014236 
2050	 0.454251348972321 
2051	 0.455176621675491 
2052	 0.456067562103271 
2053	 0.45699280500412 
2054	 0.457884073257446 
2055	 0.458692997694016 
2056	 0.459543734788895 
2057	 0.460446715354919 
2058	 0.461291611194611 
2059	 0.462056934833527 
2060	 0.462839961051941 
2061	 0.463633090257645 
2062	 0.464413046836853 
2063	 0.465161263942719 
2064	 0.465882360935211 
2065	 0.466578245162964 
2066	 0.467203944921494 
2067	 0.467806428670883 
2068	 0.468379378318787 
2069	 0.468977302312851 
2070	 0.46956667304039 
2071	 0.470083981752396 
2072	 0.470580011606216 
2073	 0.471097618341446 
2074	 0.471573680639267 
2075	 0.472016155719757 
2076	 0.472461521625519 
2077	 0.472955137491226 
2078	 0.473389625549316 
2079	 0.473760843276978 
2080	 0.474156588315964 
2081	 0.474628418684006 
2082	 0.474959760904312 
2083	 0.475215315818787 
2084	 0.475445032119751 
2085	 0.475578933954239 
2086	 0.475762665271759 
2087	 0.476017087697983 
2088	 0.476116836071014 
2089	 0.476164370775223 
2090	 0.47613987326622 
2091	 0.476068526506424 
2092	 0.475903928279877 
2093	 0.475790292024612 
2094	 0.475638687610626 
2095	 0.47530859708786 
2096	 0.475042551755905 
2097	 0.474839508533478 
2098	 0.474699944257736 
2099	 0.474468678236008 
2100	 0.474212169647217 
2101	 0.474017232656479 
2102	 0.473801523447037 
2103	 0.473601847887039 
2104	 0.473509758710861 
2105	 0.473370462656021 
2106	 0.473213911056519 
2107	 0.472944557666779 
2108	 0.47271004319191 
2109	 0.472579270601273 
2110	 0.472487062215805 
2111	 0.472332715988159 
2112	 0.472174018621445 
2113	 0.471990495920181 
2114	 0.471890866756439 
2115	 0.471816569566727 
2116	 0.471714079380035 
2117	 0.471688389778137 
2118	 0.471616148948669 
2119	 0.471349567174912 
2120	 0.471309751272202 
2121	 0.471500784158707 
2122	 0.471551895141602 
2123	 0.471641719341278 
2124	 0.471699744462967 
2125	 0.471722543239594 
2126	 0.471622705459595 
2127	 0.471572279930115 
2128	 0.471594303846359 
2129	 0.471576362848282 
2130	 0.471528917551041 
2131	 0.471480846405029 
2132	 0.471477180719376 
2133	 0.471425324678421 
2134	 0.471353560686111 
2135	 0.471242636442184 
2136	 0.471175968647003 
2137	 0.470925509929657 
2138	 0.470547556877136 
2139	 0.470182061195374 
2140	 0.46972519159317 
2141	 0.46922355890274 
2142	 0.468784689903259 
2143	 0.468147903680801 
2144	 0.467372059822083 
2145	 0.466481059789658 
2146	 0.46555158495903 
2147	 0.464593321084976 
2148	 0.463531494140625 
2149	 0.462484806776047 
2150	 0.461397707462311 
2151	 0.460216611623764 
2152	 0.459078937768936 
2153	 0.457928150892258 
2154	 0.456853419542313 
2155	 0.455775290727615 
2156	 0.454768538475037 
2157	 0.453900665044785 
2158	 0.452910542488098 
2159	 0.451829612255096 
2160	 0.45087343454361 
2161	 0.449874728918076 
2162	 0.449040055274963 
2163	 0.448407679796219 
2164	 0.447715312242508 
2165	 0.446970999240875 
2166	 0.44630166888237 
2167	 0.445532083511353 
2168	 0.444728225469589 
2169	 0.444129347801209 
2170	 0.443465292453766 
2171	 0.442776173353195 
2172	 0.442153006792068 
2173	 0.441418886184692 
2174	 0.440554112195969 
2175	 0.439815670251846 
2176	 0.439176291227341 
2177	 0.438354730606079 
2178	 0.437552511692047 
2179	 0.436584919691086 
2180	 0.435405433177948 
2181	 0.434224903583527 
2182	 0.433041960000992 
2183	 0.43171101808548 
2184	 0.430239140987396 
2185	 0.42869821190834 
2186	 0.427062034606934 
2187	 0.425347179174423 
2188	 0.42342147231102 
2189	 0.421566069126129 
2190	 0.419676214456558 
2191	 0.417694449424744 
2192	 0.41593399643898 
2193	 0.414235174655914 
2194	 0.412347465753555 
2195	 0.410455763339996 
2196	 0.408474385738373 
2197	 0.406338751316071 
2198	 0.404256582260132 
2199	 0.402218788862228 
2200	 0.400013238191605 
2201	 0.397764980792999 
2202	 0.395365536212921 
2203	 0.39272603392601 
2204	 0.390205889940262 
2205	 0.387457996606827 
2206	 0.385086447000504 
2207	 0.38265186548233 
2208	 0.380839735269547 
2209	 0.379517883062363 
2210	 0.378402262926102 
2211	 0.37759205698967 
2212	 0.377325832843781 
2213	 0.377280324697495 
2214	 0.377319067716599 
2215	 0.377525717020035 
2216	 0.377628982067108 
2217	 0.377425014972687 
2218	 0.376939684152603 
2219	 0.376263171434402 
2220	 0.375189214944839 
2221	 0.373836755752563 
2222	 0.372220456600189 
2223	 0.370314687490463 
2224	 0.368073999881744 
2225	 0.36575248837471 
2226	 0.363127738237381 
2227	 0.360424101352692 
2228	 0.35761946439743 
2229	 0.354623079299927 
2230	 0.351415365934372 
2231	 0.348098963499069 
2232	 0.34456741809845 
2233	 0.341061890125275 
2234	 0.337364792823792 
2235	 0.333783268928528 
2236	 0.330267012119293 
2237	 0.326659560203552 
2238	 0.322885632514954 
2239	 0.319406598806381 
2240	 0.316041231155396 
2241	 0.31288081407547 
2242	 0.310062229633331 
2243	 0.307246595621109 
2244	 0.304587513208389 
2245	 0.302380442619324 
2246	 0.300371408462524 
2247	 0.298579037189484 
2248	 0.296979576349258 
2249	 0.295506238937378 
2250	 0.294574707746506 
2251	 0.294053912162781 
2252	 0.293717324733734 
2253	 0.293785631656647 
2254	 0.294100642204285 
2255	 0.294600307941437 
2256	 0.295382082462311 
2257	 0.296624213457108 
2258	 0.297866076231003 
2259	 0.299339115619659 
2260	 0.300781011581421 
2261	 0.302463501691818 
2262	 0.303934663534164 
2263	 0.305344313383102 
2264	 0.306682467460632 
2265	 0.308029174804688 
2266	 0.309103190898895 
2267	 0.310088515281677 
2268	 0.310841858386993 
2269	 0.311177581548691 
2270	 0.311677485704422 
2271	 0.312230914831162 
2272	 0.312525242567062 
2273	 0.312618404626846 
2274	 0.312605977058411 
2275	 0.312254875898361 
2276	 0.311805576086044 
2277	 0.31143245100975 
2278	 0.310869544744492 
2279	 0.309975266456604 
2280	 0.308871179819107 
2281	 0.307556003332138 
2282	 0.306107610464096 
2283	 0.304607689380646 
2284	 0.302835255861282 
2285	 0.300942718982697 
2286	 0.298968821763992 
2287	 0.296937316656113 
2288	 0.294934183359146 
2289	 0.292864948511124 
2290	 0.290824174880981 
2291	 0.28892982006073 
2292	 0.287036806344986 
2293	 0.285352885723114 
2294	 0.283833712339401 
2295	 0.282445520162582 
2296	 0.281276553869247 
2297	 0.280075997114182 
2298	 0.278913944959641 
2299	 0.277955383062363 
2300	 0.277182817459106 
2301	 0.276232331991196 
2302	 0.27547225356102 
2303	 0.274481981992722 
2304	 0.273229897022247 
2305	 0.272057980298996 
2306	 0.270933449268341 
2307	 0.269638299942017 
2308	 0.268211185932159 
2309	 0.266793757677078 
2310	 0.265238523483276 
2311	 0.263751745223999 
2312	 0.262286305427551 
2313	 0.260844707489014 
2314	 0.259333580732346 
2315	 0.257970839738846 
2316	 0.256781131029129 
2317	 0.255475252866745 
2318	 0.25412854552269 
2319	 0.253060847520828 
2320	 0.252180814743042 
2321	 0.251473158597946 
2322	 0.250913888216019 
2323	 0.250254988670349 
2324	 0.249525457620621 
2325	 0.248939380049706 
2326	 0.248458012938499 
2327	 0.248313650488853 
2328	 0.248358860611916 
2329	 0.248110800981522 
2330	 0.247855976223946 
2331	 0.24778239428997 
2332	 0.247763946652412 
2333	 0.247861862182617 
2334	 0.248004943132401 
2335	 0.248105958104134 
2336	 0.248204275965691 
2337	 0.248351454734802 
2338	 0.248638823628426 
2339	 0.249042570590973 
2340	 0.249264001846313 
2341	 0.249389946460724 
2342	 0.24978968501091 
2343	 0.250506788492203 
2344	 0.251346737146378 
2345	 0.252126067876816 
2346	 0.253002732992172 
2347	 0.253706127405167 
2348	 0.254305750131607 
2349	 0.255421429872513 
2350	 0.256331384181976 
2351	 0.257156521081924 
2352	 0.258082747459412 
2353	 0.259072959423065 
2354	 0.2599116563797 
2355	 0.260811805725098 
2356	 0.26173335313797 
2357	 0.26248824596405 
2358	 0.263488233089447 
2359	 0.264648735523224 
2360	 0.265647143125534 
2361	 0.266735315322876 
2362	 0.267762213945389 
2363	 0.268671810626984 
2364	 0.269629448652267 
2365	 0.270598918199539 
2366	 0.271512061357498 
2367	 0.272357016801834 
2368	 0.273317635059357 
2369	 0.274340808391571 
2370	 0.275339514017105 
2371	 0.276546567678452 
2372	 0.277381211519241 
2373	 0.277965307235718 
2374	 0.278484404087067 
2375	 0.278913050889969 
2376	 0.279117584228516 
2377	 0.279031872749329 
2378	 0.279185503721237 
2379	 0.27920201420784 
2380	 0.279181569814682 
2381	 0.2792908847332 
2382	 0.279490262269974 
2383	 0.279678761959076 
2384	 0.279713273048401 
2385	 0.279870331287384 
2386	 0.279823482036591 
2387	 0.279414385557175 
2388	 0.279258012771606 
2389	 0.279194056987762 
2390	 0.279137134552002 
2391	 0.278987467288971 
2392	 0.279055118560791 
2393	 0.279397785663605 
2394	 0.279523819684982 
2395	 0.279565334320068 
2396	 0.279959619045258 
2397	 0.28047913312912 
2398	 0.280807465314865 
2399	 0.281400620937347 
2400	 0.281768083572388 
2401	 0.281721293926239 
2402	 0.281942814588547 
2403	 0.282265305519104 
2404	 0.282707035541534 
2405	 0.283376187086105 
2406	 0.283693373203278 
2407	 0.284052670001984 
2408	 0.284272879362106 
2409	 0.284039735794067 
2410	 0.284067720174789 
2411	 0.284309059381485 
2412	 0.28427517414093 
2413	 0.284177154302597 
2414	 0.283974289894104 
2415	 0.283636569976807 
2416	 0.283208131790161 
2417	 0.282586842775345 
2418	 0.282143086194992 
2419	 0.281596392393112 
2420	 0.281116098165512 
2421	 0.28103169798851 
2422	 0.280379056930542 
2423	 0.279288917779922 
2424	 0.278607279062271 
2425	 0.27776962518692 
2426	 0.277012139558792 
2427	 0.276735574007034 
2428	 0.275837451219559 
2429	 0.274311900138855 
2430	 0.273510009050369 
2431	 0.273045271635056 
2432	 0.272059708833694 
2433	 0.271089851856232 
2434	 0.270297229290009 
2435	 0.26909402012825 
2436	 0.268132299184799 
2437	 0.267684876918793 
2438	 0.267023801803589 
2439	 0.266064614057541 
2440	 0.265284717082977 
2441	 0.264785349369049 
2442	 0.264180511236191 
2443	 0.263379216194153 
2444	 0.262720763683319 
2445	 0.262418836355209 
2446	 0.26157882809639 
2447	 0.260283231735229 
2448	 0.259612023830414 
2449	 0.258944004774094 
2450	 0.258331596851349 
2451	 0.258346796035767 
2452	 0.257513731718063 
2453	 0.256065100431442 
2454	 0.25512832403183 
2455	 0.254156529903412 
2456	 0.253320008516312 
2457	 0.252826601266861 
2458	 0.252287238836288 
2459	 0.251482754945755 
2460	 0.251333385705948 
2461	 0.251220017671585 
2462	 0.250401675701141 
2463	 0.24955590069294 
2464	 0.248290926218033 
2465	 0.247598960995674 
2466	 0.248054221272469 
2467	 0.247862994670868 
2468	 0.247272491455078 
2469	 0.246978312730789 
2470	 0.246722370386124 
2471	 0.246166795492172 
2472	 0.245636835694313 
2473	 0.245198875665665 
2474	 0.244371652603149 
2475	 0.24371549487114 
2476	 0.243328288197517 
2477	 0.243021979928017 
2478	 0.242900267243385 
2479	 0.242448702454567 
2480	 0.241834864020348 
2481	 0.241506308317184 
2482	 0.240769997239113 
2483	 0.240619629621506 
2484	 0.241845116019249 
2485	 0.241528674960136 
2486	 0.239971697330475 
2487	 0.239665433764458 
2488	 0.23904837667942 
2489	 0.238889336585999 
2490	 0.240559473633766 
2491	 0.240496173501015 
2492	 0.238884195685387 
2493	 0.238576471805573 
2494	 0.238470584154129 
2495	 0.238102078437805 
2496	 0.238260313868523 
2497	 0.238175451755524 
2498	 0.237557992339134 
2499	 0.237201765179634 
2500	 0.237047001719475 
