
Text conversion of header file \A_MEDIDAS\PROJETOS\BRASIL\BLOCO GAVIAO\JACOBINA\CANIF27\sco\CANIF27_023.26_00001.asd.ref
 -------------------------------------------------------------
                                                                                                                                                            
The instrument number was  16586/1
New ASD spectrum file: Program version = 6.00 file version = 1.00
Spectrum saved: 10/16/2018 at 10:06:48
VNIR integration time : 34
VNIR channel 1 wavelength = 350 wavelength step = 1
There were 50 samples per data value
xmin = 350 xmax= 2500
ymin= 0 ymax= 1.25
The instrument digitizes spectral values to 16 bits
SWIR1 gain was 214 offset was 2097
SWIR2 gain was 513 offset was 2267
Join between VNIR and SWIR1 was 1000 nm
Join between SWIR1 and SWIR2 was 1830 nm
Absolute Reflectance is Enabled
The Absolute Reflectance File is abs165861.ref
VNIR dark signal subtracted
50 dark measurements taken Tue Oct 16 09:52:54 2018
DCC value was 0
Data is compared to a white reference:
60 white reference measurements taken Tue Oct 16 09:53:02 2018
There was no foreoptic attached
Spectrum file is reflectance data
GPS-Latitude is S0
GPS-Longitude is E0
GPS-Altitude is 0
GPS-UTC is Wed Dec 31 17:00:00 1969

Smart Detector
Serial#  0
Signal (A)  0.000E00
Dark (A)  0.000E00
Ref (A)  0.000E00
Status  0 - Uninitialized
Gain  E-4
Averaging  0
Temp (C)  0.0
Humid (%)  0.0

Reflectance Absolute
Wavelength	CANIF27_23.26_00001.asd.ref
350	 0.157130807638168 
351	 0.151063978672028 
352	 0.156781435012817 
353	 0.161035224795341 
354	 0.156061246991158 
355	 0.155139923095703 
356	 0.158961728215218 
357	 0.161245256662369 
358	 0.156380072236061 
359	 0.149917989969254 
360	 0.156031206250191 
361	 0.166704744100571 
362	 0.162227541208267 
363	 0.156346455216408 
364	 0.158044248819351 
365	 0.165241464972496 
366	 0.162306144833565 
367	 0.161760911345482 
368	 0.16177636384964 
369	 0.16042423248291 
370	 0.165738716721535 
371	 0.16601774096489 
372	 0.161757484078407 
373	 0.158996805548668 
374	 0.159019157290459 
375	 0.162069603800774 
376	 0.165622055530548 
377	 0.164996847510338 
378	 0.165317311882973 
379	 0.166362643241882 
380	 0.166956230998039 
381	 0.165893122553825 
382	 0.166368946433067 
383	 0.167514577507973 
384	 0.167570546269417 
385	 0.168911620974541 
386	 0.170355528593063 
387	 0.171077236533165 
388	 0.170838415622711 
389	 0.170761153101921 
390	 0.171237573027611 
391	 0.171974986791611 
392	 0.171538949012756 
393	 0.171806633472443 
394	 0.172028407454491 
395	 0.171086758375168 
396	 0.170026317238808 
397	 0.17115506529808 
398	 0.1737330108881 
399	 0.174744203686714 
400	 0.173694610595703 
401	 0.173197701573372 
402	 0.174241289496422 
403	 0.174236789345741 
404	 0.173894703388214 
405	 0.174050956964493 
406	 0.174992203712463 
407	 0.174489572644234 
408	 0.174996927380562 
409	 0.176326155662537 
410	 0.176523044705391 
411	 0.175882875919342 
412	 0.175638750195503 
413	 0.176240637898445 
414	 0.176792040467262 
415	 0.176577478647232 
416	 0.176268547773361 
417	 0.176595628261566 
418	 0.176940456032753 
419	 0.177397608757019 
420	 0.177739039063454 
421	 0.177622243762016 
422	 0.177559316158295 
423	 0.17785207927227 
424	 0.178241744637489 
425	 0.177652209997177 
426	 0.17843222618103 
427	 0.179375126957893 
428	 0.179093271493912 
429	 0.178961917757988 
430	 0.179144039750099 
431	 0.179456353187561 
432	 0.179562702775002 
433	 0.179838210344315 
434	 0.179922103881836 
435	 0.179877743124962 
436	 0.180545255541801 
437	 0.180628836154938 
438	 0.180740177631378 
439	 0.181526780128479 
440	 0.181856021285057 
441	 0.182137832045555 
442	 0.182274729013443 
443	 0.181921079754829 
444	 0.181883469223976 
445	 0.182193711400032 
446	 0.18265064060688 
447	 0.182887271046638 
448	 0.182783126831055 
449	 0.182787999510765 
450	 0.183214291930199 
451	 0.183095067739487 
452	 0.183084145188332 
453	 0.183286473155022 
454	 0.183376297354698 
455	 0.183458924293518 
456	 0.183427006006241 
457	 0.183324471116066 
458	 0.183538839221001 
459	 0.183734640479088 
460	 0.183796599507332 
461	 0.183752447366714 
462	 0.183936923742294 
463	 0.18408028781414 
464	 0.184073552489281 
465	 0.183993265032768 
466	 0.18419061601162 
467	 0.184389293193817 
468	 0.184363529086113 
469	 0.184238284826279 
470	 0.184199810028076 
471	 0.184226304292679 
472	 0.184217348694801 
473	 0.184204563498497 
474	 0.184202417731285 
475	 0.184235870838165 
476	 0.184338510036469 
477	 0.1844682097435 
478	 0.184538453817368 
479	 0.18452300131321 
480	 0.184566333889961 
481	 0.184695303440094 
482	 0.184831514954567 
483	 0.184887319803238 
484	 0.185182109475136 
485	 0.185342192649841 
486	 0.185244724154472 
487	 0.185178324580193 
488	 0.185364589095116 
489	 0.185538336634636 
490	 0.185500964522362 
491	 0.185779303312302 
492	 0.185937821865082 
493	 0.185945302248001 
494	 0.186025515198708 
495	 0.18610705435276 
496	 0.186187565326691 
497	 0.186269357800484 
498	 0.186350226402283 
499	 0.186489284038544 
500	 0.186558574438095 
501	 0.186473861336708 
502	 0.186570972204208 
503	 0.186782643198967 
504	 0.186939686536789 
505	 0.186845779418945 
506	 0.186977088451385 
507	 0.187124222517014 
508	 0.187139570713043 
509	 0.187255650758743 
510	 0.187283605337143 
511	 0.187294363975525 
512	 0.187411189079285 
513	 0.187481850385666 
514	 0.18762432038784 
515	 0.187775194644928 
516	 0.187688782811165 
517	 0.187652289867401 
518	 0.187704861164093 
519	 0.18780505657196 
520	 0.187849178910255 
521	 0.187886819243431 
522	 0.18793211877346 
523	 0.187986180186272 
524	 0.188087284564972 
525	 0.188116118311882 
526	 0.188073307275772 
527	 0.188127458095551 
528	 0.188175708055496 
529	 0.188204258680344 
530	 0.188215970993042 
531	 0.188182637095451 
532	 0.18824003636837 
533	 0.188326358795166 
534	 0.188281744718552 
535	 0.188339352607727 
536	 0.188395142555237 
537	 0.188385993242264 
538	 0.188385963439941 
539	 0.188476800918579 
540	 0.188507989048958 
541	 0.18837496638298 
542	 0.188520655035973 
543	 0.188659369945526 
544	 0.188700839877129 
545	 0.188742816448212 
546	 0.188760340213776 
547	 0.188829123973846 
548	 0.188948884606361 
549	 0.188911497592926 
550	 0.188915953040123 
551	 0.188979744911194 
552	 0.189055323600769 
553	 0.189164265990257 
554	 0.18927189707756 
555	 0.189326897263527 
556	 0.189270094037056 
557	 0.18929435312748 
558	 0.189390644431114 
559	 0.189521849155426 
560	 0.189722716808319 
561	 0.189912185072899 
562	 0.189999505877495 
563	 0.189939692616463 
564	 0.190039798617363 
565	 0.190210789442062 
566	 0.190355405211449 
567	 0.190427854657173 
568	 0.190415561199188 
569	 0.190399914979935 
570	 0.190446615219116 
571	 0.190445944666862 
572	 0.190558657050133 
573	 0.190778374671936 
574	 0.19098924100399 
575	 0.191322579979897 
576	 0.191691845655441 
577	 0.192003667354584 
578	 0.192212641239166 
579	 0.192383036017418 
580	 0.192508906126022 
581	 0.192568957805634 
582	 0.192564889788628 
583	 0.192619532346725 
584	 0.192730784416199 
585	 0.192785382270813 
586	 0.19277711212635 
587	 0.192781016230583 
588	 0.192887768149376 
589	 0.193212777376175 
590	 0.193485274910927 
591	 0.19363933801651 
592	 0.193701013922691 
593	 0.193648606538773 
594	 0.193648278713226 
595	 0.193750306963921 
596	 0.193865239620209 
597	 0.193856716156006 
598	 0.193728402256966 
599	 0.193546935915947 
600	 0.193442463874817 
601	 0.193305745720863 
602	 0.193175762891769 
603	 0.19314332306385 
604	 0.193103834986687 
605	 0.193123638629913 
606	 0.193213745951653 
607	 0.193297699093819 
608	 0.193270400166512 
609	 0.193193152546883 
610	 0.193149894475937 
611	 0.193146258592606 
612	 0.193105891346931 
613	 0.193023860454559 
614	 0.192939445376396 
615	 0.192832589149475 
616	 0.192837506532669 
617	 0.192946940660477 
618	 0.192917808890343 
619	 0.192816272377968 
620	 0.192743882536888 
621	 0.192768827080727 
622	 0.192773386836052 
623	 0.192806363105774 
624	 0.192824959754944 
625	 0.192741051316261 
626	 0.192705661058426 
627	 0.192762419581413 
628	 0.19287534058094 
629	 0.192903816699982 
630	 0.192882195115089 
631	 0.192848801612854 
632	 0.192855551838875 
633	 0.192993849515915 
634	 0.193096309900284 
635	 0.193097740411758 
636	 0.19304122030735 
637	 0.193149030208588 
638	 0.193271473050117 
639	 0.19330732524395 
640	 0.193363055586815 
641	 0.193363726139069 
642	 0.193400174379349 
643	 0.193533405661583 
644	 0.193430453538895 
645	 0.193417742848396 
646	 0.193505182862282 
647	 0.19345061480999 
648	 0.193535059690475 
649	 0.193643972277641 
650	 0.193695038557053 
651	 0.193788573145866 
652	 0.193876355886459 
653	 0.193976104259491 
654	 0.19410128891468 
655	 0.194148287177086 
656	 0.194206222891808 
657	 0.194298222661018 
658	 0.194388702511787 
659	 0.194486156105995 
660	 0.194600179791451 
661	 0.194733917713165 
662	 0.19488126039505 
663	 0.194984540343285 
664	 0.195080056786537 
665	 0.195219710469246 
666	 0.195381671190262 
667	 0.195494562387466 
668	 0.195577129721642 
669	 0.195713669061661 
670	 0.195898130536079 
671	 0.196055755019188 
672	 0.196146607398987 
673	 0.196203514933586 
674	 0.196291267871857 
675	 0.1964340955019 
676	 0.196601584553719 
677	 0.196626931428909 
678	 0.196642950177193 
679	 0.196684345602989 
680	 0.19671967625618 
681	 0.196801781654358 
682	 0.196842163801193 
683	 0.196809947490692 
684	 0.196780160069466 
685	 0.196803271770477 
686	 0.196891278028488 
687	 0.197022795677185 
688	 0.197120144963264 
689	 0.197267383337021 
690	 0.197406709194183 
691	 0.197440639138222 
692	 0.197570323944092 
693	 0.197763010859489 
694	 0.197932854294777 
695	 0.197969883680344 
696	 0.198095113039017 
697	 0.198300495743752 
698	 0.198518246412277 
699	 0.198671922087669 
700	 0.198772519826889 
701	 0.198909267783165 
702	 0.199156150221825 
703	 0.199319094419479 
704	 0.199448794126511 
705	 0.199587792158127 
706	 0.199754774570465 
707	 0.199949085712433 
708	 0.200087621808052 
709	 0.200160279870033 
710	 0.200312241911888 
711	 0.200480729341507 
712	 0.200633466243744 
713	 0.200764656066895 
714	 0.200945779681206 
715	 0.201075479388237 
716	 0.201149642467499 
717	 0.201234072446823 
718	 0.201401174068451 
719	 0.201552465558052 
720	 0.201642110943794 
721	 0.201715692877769 
722	 0.201842054724693 
723	 0.202001079916954 
724	 0.202144250273705 
725	 0.202203974127769 
726	 0.202298164367676 
727	 0.202403426170349 
728	 0.202463790774345 
729	 0.202559068799019 
730	 0.202665567398071 
731	 0.202759578824043 
732	 0.202824756503105 
733	 0.202870309352875 
734	 0.202940344810486 
735	 0.203032538294792 
736	 0.203069433569908 
737	 0.203226521611214 
738	 0.203354299068451 
739	 0.203324675559998 
740	 0.20330573618412 
741	 0.20329724252224 
742	 0.203325405716896 
743	 0.203407004475594 
744	 0.203478798270226 
745	 0.20352603495121 
746	 0.203552722930908 
747	 0.203573897480965 
748	 0.20356360077858 
749	 0.203549385070801 
750	 0.203552260994911 
751	 0.203571125864983 
752	 0.203592896461487 
753	 0.203618437051773 
754	 0.203634858131409 
755	 0.203573524951935 
756	 0.203543588519096 
757	 0.203564763069153 
758	 0.203599825501442 
759	 0.203546941280365 
760	 0.203524604439735 
761	 0.203520208597183 
762	 0.203434377908707 
763	 0.203422740101814 
764	 0.203411430120468 
765	 0.203351020812988 
766	 0.203264266252518 
767	 0.203212574124336 
768	 0.203187346458435 
769	 0.203160852193832 
770	 0.203098088502884 
771	 0.203100249171257 
772	 0.203077375888824 
773	 0.202936068177223 
774	 0.202820166945457 
775	 0.202736154198647 
776	 0.202686563134193 
777	 0.202660262584686 
778	 0.202590972185135 
779	 0.202517777681351 
780	 0.202445432543755 
781	 0.20234189927578 
782	 0.202226206660271 
783	 0.20212833583355 
784	 0.202066376805305 
785	 0.202037736773491 
786	 0.201939091086388 
787	 0.201808080077171 
788	 0.20170022547245 
789	 0.201633542776108 
790	 0.201475784182549 
791	 0.201303780078888 
792	 0.201229587197304 
793	 0.201208010315895 
794	 0.201154053211212 
795	 0.20104792714119 
796	 0.200910836458206 
797	 0.200745210051537 
798	 0.200623169541359 
799	 0.200536042451859 
800	 0.200413048267365 
801	 0.200288817286491 
802	 0.200147017836571 
803	 0.200023606419563 
804	 0.200008422136307 
805	 0.199876859784126 
806	 0.199720352888107 
807	 0.199625477194786 
808	 0.199559092521667 
809	 0.19938151538372 
810	 0.199226781725883 
811	 0.199194058775902 
812	 0.199093282222748 
813	 0.198981091380119 
814	 0.19884218275547 
815	 0.198683202266693 
816	 0.198686003684998 
817	 0.198526442050934 
818	 0.19829548895359 
819	 0.198225140571594 
820	 0.19807405769825 
821	 0.197934105992317 
822	 0.197850674390793 
823	 0.197808846831322 
824	 0.197717159986496 
825	 0.197572752833366 
826	 0.197421014308929 
827	 0.197327524423599 
828	 0.197184726595879 
829	 0.197052478790283 
830	 0.196943283081055 
831	 0.196792110800743 
832	 0.19676499068737 
833	 0.19671356678009 
834	 0.196558892726898 
835	 0.196427717804909 
836	 0.196341454982758 
837	 0.196250692009926 
838	 0.196120858192444 
839	 0.195985466241837 
840	 0.19592721760273 
841	 0.195860981941223 
842	 0.195718958973885 
843	 0.195616215467453 
844	 0.195501789450645 
845	 0.195392996072769 
846	 0.195313796401024 
847	 0.19524422287941 
848	 0.195126444101334 
849	 0.194992765784264 
850	 0.194907054305077 
851	 0.194903418421745 
852	 0.194788485765457 
853	 0.194621101021767 
854	 0.194547429680824 
855	 0.194464921951294 
856	 0.194408714771271 
857	 0.194361999630928 
858	 0.194278836250305 
859	 0.194127589464188 
860	 0.194085642695427 
861	 0.194109171628952 
862	 0.194027721881866 
863	 0.193924263119698 
864	 0.193794965744019 
865	 0.193700596690178 
866	 0.193712532520294 
867	 0.193632394075394 
868	 0.193556144833565 
869	 0.19351901113987 
870	 0.193480804562569 
871	 0.193419739603996 
872	 0.193355560302734 
873	 0.193283677101135 
874	 0.19319024682045 
875	 0.193210929632187 
876	 0.193198472261429 
877	 0.19312946498394 
878	 0.193115890026093 
879	 0.193102806806564 
880	 0.193055927753448 
881	 0.192984655499458 
882	 0.192941442131996 
883	 0.193001091480255 
884	 0.192976847290993 
885	 0.192880660295486 
886	 0.192918106913567 
887	 0.192892506718636 
888	 0.192886605858803 
889	 0.192893087863922 
890	 0.192811474204063 
891	 0.192830309271812 
892	 0.192798748612404 
893	 0.19272743165493 
894	 0.19278521835804 
895	 0.192776724696159 
896	 0.192780941724777 
897	 0.192795753479004 
898	 0.192735180258751 
899	 0.192674770951271 
900	 0.192704975605011 
901	 0.192786797881126 
902	 0.192792266607285 
903	 0.192785784602165 
904	 0.192816480994225 
905	 0.192887097597122 
906	 0.192947000265121 
907	 0.192859798669815 
908	 0.192790195345879 
909	 0.192805841565132 
910	 0.192864134907722 
911	 0.192850977182388 
912	 0.192898124456406 
913	 0.192948028445244 
914	 0.192895516753197 
915	 0.193035870790482 
916	 0.193171679973602 
917	 0.193223401904106 
918	 0.193208962678909 
919	 0.193193271756172 
920	 0.193179026246071 
921	 0.193198651075363 
922	 0.193267568945885 
923	 0.19330869615078 
924	 0.19335500895977 
925	 0.193372398614883 
926	 0.193355068564415 
927	 0.193433865904808 
928	 0.193514063954353 
929	 0.193568751215935 
930	 0.193621098995209 
931	 0.193748667836189 
932	 0.193806767463684 
933	 0.193852558732033 
934	 0.193927109241486 
935	 0.193966045975685 
936	 0.194053336977959 
937	 0.194161161780357 
938	 0.194244682788849 
939	 0.19428052008152 
940	 0.194375768303871 
941	 0.194413259625435 
942	 0.194402620196342 
943	 0.194467961788177 
944	 0.194463163614273 
945	 0.19452953338623 
946	 0.194651991128922 
947	 0.194719344377518 
948	 0.19479376077652 
949	 0.194805070757866 
950	 0.194807678461075 
951	 0.194871962070465 
952	 0.194899544119835 
953	 0.194952264428139 
954	 0.195004552602768 
955	 0.195015594363213 
956	 0.194982156157494 
957	 0.195014029741287 
958	 0.195030614733696 
959	 0.195030450820923 
960	 0.195174247026443 
961	 0.195243567228317 
962	 0.195246264338493 
963	 0.195256009697914 
964	 0.195348352193832 
965	 0.195451572537422 
966	 0.19556000828743 
967	 0.195631116628647 
968	 0.195652455091476 
969	 0.195844888687134 
970	 0.195928007364273 
971	 0.195953756570816 
972	 0.196039780974388 
973	 0.196075141429901 
974	 0.196174770593643 
975	 0.19620755314827 
976	 0.196165099740028 
977	 0.196292534470558 
978	 0.196419522166252 
979	 0.196542710065842 
980	 0.196642994880676 
981	 0.196691542863846 
982	 0.196820542216301 
983	 0.196850657463074 
984	 0.19680917263031 
985	 0.196803465485573 
986	 0.196747705340385 
987	 0.196793675422668 
988	 0.196863561868668 
989	 0.196901023387909 
990	 0.197017908096313 
991	 0.197102412581444 
992	 0.197137653827667 
993	 0.197153553366661 
994	 0.197188913822174 
995	 0.197160005569458 
996	 0.197158187627792 
997	 0.197151884436607 
998	 0.197093799710274 
999	 0.197133675217628 
1000	 0.197153076529503 
1001	 0.195161551237106 
1002	 0.19521552324295 
1003	 0.195236071944237 
1004	 0.195208147168159 
1005	 0.195165574550629 
1006	 0.195152506232262 
1007	 0.195159628987312 
1008	 0.195133030414581 
1009	 0.19514399766922 
1010	 0.195236340165138 
1011	 0.195190832018852 
1012	 0.195068642497063 
1013	 0.195040762424469 
1014	 0.194960340857506 
1015	 0.194930374622345 
1016	 0.195019900798798 
1017	 0.195026084780693 
1018	 0.19493268430233 
1019	 0.194803416728973 
1020	 0.194749012589455 
1021	 0.19467356801033 
1022	 0.194651141762733 
1023	 0.194728091359138 
1024	 0.194737255573273 
1025	 0.194718241691589 
1026	 0.194709405303001 
1027	 0.194716200232506 
1028	 0.194696292281151 
1029	 0.194669723510742 
1030	 0.194624364376068 
1031	 0.194550469517708 
1032	 0.194397374987602 
1033	 0.194288119673729 
1034	 0.19424657523632 
1035	 0.194196835160255 
1036	 0.194132894277573 
1037	 0.194082036614418 
1038	 0.194010123610497 
1039	 0.193952605128288 
1040	 0.193916976451874 
1041	 0.193886235356331 
1042	 0.193849012255669 
1043	 0.193815499544144 
1044	 0.193789914250374 
1045	 0.193776220083237 
1046	 0.193769618868828 
1047	 0.193760931491852 
1048	 0.193735972046852 
1049	 0.193713620305061 
1050	 0.193629533052444 
1051	 0.193507865071297 
1052	 0.193407773971558 
1053	 0.193319603800774 
1054	 0.193261608481407 
1055	 0.193292707204819 
1056	 0.19321745634079 
1057	 0.193115562200546 
1058	 0.192977994680405 
1059	 0.192861407995224 
1060	 0.192762613296509 
1061	 0.192703321576118 
1062	 0.192668274044991 
1063	 0.192530378699303 
1064	 0.192383393645287 
1065	 0.192295134067535 
1066	 0.192193433642387 
1067	 0.192169010639191 
1068	 0.192154660820961 
1069	 0.192084044218063 
1070	 0.1919986307621 
1071	 0.191904455423355 
1072	 0.191770374774933 
1073	 0.191617041826248 
1074	 0.191517680883408 
1075	 0.19143633544445 
1076	 0.191387444734573 
1077	 0.191371768712997 
1078	 0.191369444131851 
1079	 0.191304787993431 
1080	 0.191256180405617 
1081	 0.19114938378334 
1082	 0.190981045365334 
1083	 0.190885081887245 
1084	 0.190805315971375 
1085	 0.190740317106247 
1086	 0.190633654594421 
1087	 0.190524458885193 
1088	 0.190406069159508 
1089	 0.190286472439766 
1090	 0.190169036388397 
1091	 0.190104022622108 
1092	 0.190045922994614 
1093	 0.189980670809746 
1094	 0.189883768558502 
1095	 0.189802035689354 
1096	 0.189770296216011 
1097	 0.189700171351433 
1098	 0.189609602093697 
1099	 0.189561814069748 
1100	 0.189534440636635 
1101	 0.189516171813011 
1102	 0.189526066184044 
1103	 0.189504384994507 
1104	 0.189456775784492 
1105	 0.189397603273392 
1106	 0.18923382461071 
1107	 0.18910539150238 
1108	 0.189010560512543 
1109	 0.188864126801491 
1110	 0.188811630010605 
1111	 0.188813969492912 
1112	 0.188842386007309 
1113	 0.188925832509995 
1114	 0.188916176557541 
1115	 0.18886362016201 
1116	 0.188839167356491 
1117	 0.188798651099205 
1118	 0.188723415136337 
1119	 0.18866953253746 
1120	 0.188666954636574 
1121	 0.188653722405434 
1122	 0.188582614064217 
1123	 0.188535436987877 
1124	 0.188504859805107 
1125	 0.188408643007278 
1126	 0.188327044248581 
1127	 0.188322320580482 
1128	 0.188311770558357 
1129	 0.188319310545921 
1130	 0.188368186354637 
1131	 0.188368767499924 
1132	 0.188319474458694 
1133	 0.188251003623009 
1134	 0.18820509314537 
1135	 0.188156932592392 
1136	 0.188109830021858 
1137	 0.188072890043259 
1138	 0.18805393576622 
1139	 0.188014641404152 
1140	 0.188004299998283 
1141	 0.188016697764397 
1142	 0.188011154532433 
1143	 0.18797954916954 
1144	 0.187944024801254 
1145	 0.187882795929909 
1146	 0.187808126211166 
1147	 0.187776789069176 
1148	 0.1877361536026 
1149	 0.187687262892723 
1150	 0.187659785151482 
1151	 0.187604442238808 
1152	 0.187519520521164 
1153	 0.187442272901535 
1154	 0.187397316098213 
1155	 0.187341630458832 
1156	 0.18730890750885 
1157	 0.187260448932648 
1158	 0.187180772423744 
1159	 0.187134340405464 
1160	 0.187096208333969 
1161	 0.18706887960434 
1162	 0.18705989420414 
1163	 0.187021479010582 
1164	 0.186966359615326 
1165	 0.186894446611404 
1166	 0.186843380331993 
1167	 0.186808377504349 
1168	 0.186762750148773 
1169	 0.186714679002762 
1170	 0.186685100197792 
1171	 0.186643779277802 
1172	 0.186544492840767 
1173	 0.186487883329391 
1174	 0.186432167887688 
1175	 0.186387285590172 
1176	 0.186363771557808 
1177	 0.186304301023483 
1178	 0.186261162161827 
1179	 0.186190366744995 
1180	 0.186108186841011 
1181	 0.186080932617188 
1182	 0.186053603887558 
1183	 0.186009451746941 
1184	 0.185971647500992 
1185	 0.185931324958801 
1186	 0.185873463749886 
1187	 0.185819908976555 
1188	 0.185770943760872 
1189	 0.185720309615135 
1190	 0.185693830251694 
1191	 0.185633808374405 
1192	 0.185578614473343 
1193	 0.185529872775078 
1194	 0.18544664978981 
1195	 0.18539223074913 
1196	 0.185342237353325 
1197	 0.185309335589409 
1198	 0.185263335704803 
1199	 0.185176759958267 
1200	 0.185115486383438 
1201	 0.185047432780266 
1202	 0.184994950890541 
1203	 0.184980526566505 
1204	 0.184930190443993 
1205	 0.184846416115761 
1206	 0.184799045324326 
1207	 0.18474768102169 
1208	 0.184719607234001 
1209	 0.1847123503685 
1210	 0.184704169631004 
1211	 0.184649646282196 
1212	 0.184576004743576 
1213	 0.184519797563553 
1214	 0.184452071785927 
1215	 0.18438558280468 
1216	 0.184312596917152 
1217	 0.184206202626228 
1218	 0.184104532003403 
1219	 0.184050634503365 
1220	 0.184041321277618 
1221	 0.18400114774704 
1222	 0.184002891182899 
1223	 0.183966383337975 
1224	 0.183875665068626 
1225	 0.183809176087379 
1226	 0.183754235506058 
1227	 0.183676153421402 
1228	 0.183593854308128 
1229	 0.18358750641346 
1230	 0.183567270636559 
1231	 0.183520019054413 
1232	 0.183498933911324 
1233	 0.183422863483429 
1234	 0.183332771062851 
1235	 0.183282032608986 
1236	 0.183206856250763 
1237	 0.183176293969154 
1238	 0.183142602443695 
1239	 0.183134391903877 
1240	 0.183077111840248 
1241	 0.182992368936539 
1242	 0.182929739356041 
1243	 0.182861372828484 
1244	 0.18279755115509 
1245	 0.182756781578064 
1246	 0.182703599333763 
1247	 0.182633846998215 
1248	 0.182557865977287 
1249	 0.182516932487488 
1250	 0.182451099157333 
1251	 0.182396605610847 
1252	 0.182341873645782 
1253	 0.182277366518974 
1254	 0.182255864143372 
1255	 0.182214140892029 
1256	 0.182151064276695 
1257	 0.182092741131783 
1258	 0.18201307952404 
1259	 0.181967690587044 
1260	 0.181964382529259 
1261	 0.181911930441856 
1262	 0.181842833757401 
1263	 0.181792020797729 
1264	 0.181711435317993 
1265	 0.181665122509003 
1266	 0.181665003299713 
1267	 0.181626319885254 
1268	 0.181582197546959 
1269	 0.181525483727455 
1270	 0.181415602564812 
1271	 0.181386724114418 
1272	 0.181392773985863 
1273	 0.181347668170929 
1274	 0.181302905082703 
1275	 0.181256860494614 
1276	 0.181176766753197 
1277	 0.181103900074959 
1278	 0.181057274341583 
1279	 0.181005656719208 
1280	 0.180951282382011 
1281	 0.180887192487717 
1282	 0.180832952260971 
1283	 0.180784627795219 
1284	 0.180736884474754 
1285	 0.180696487426758 
1286	 0.180643066763878 
1287	 0.180601194500923 
1288	 0.180531278252602 
1289	 0.180434077978134 
1290	 0.180343315005302 
1291	 0.180244594812393 
1292	 0.180119097232819 
1293	 0.180035427212715 
1294	 0.179979145526886 
1295	 0.17988409101963 
1296	 0.179808035492897 
1297	 0.179744035005569 
1298	 0.179626524448395 
1299	 0.179537653923035 
1300	 0.179494649171829 
1301	 0.179445683956146 
1302	 0.179377898573875 
1303	 0.179291591048241 
1304	 0.17920184135437 
1305	 0.179099977016449 
1306	 0.178941711783409 
1307	 0.178856566548347 
1308	 0.178806066513062 
1309	 0.178742900490761 
1310	 0.178715318441391 
1311	 0.178664788603783 
1312	 0.17861133813858 
1313	 0.178548440337181 
1314	 0.178466647863388 
1315	 0.178397744894028 
1316	 0.1783347427845 
1317	 0.178245589137077 
1318	 0.178174898028374 
1319	 0.178130313754082 
1320	 0.178095728158951 
1321	 0.178050458431244 
1322	 0.17795917391777 
1323	 0.177869066596031 
1324	 0.177781760692596 
1325	 0.177694991230965 
1326	 0.17766247689724 
1327	 0.177717164158821 
1328	 0.177693545818329 
1329	 0.177659422159195 
1330	 0.177630126476288 
1331	 0.177550137042999 
1332	 0.177533760666847 
1333	 0.177578076720238 
1334	 0.177574530243874 
1335	 0.177556350827217 
1336	 0.177566334605217 
1337	 0.177553817629814 
1338	 0.177570283412933 
1339	 0.177657246589661 
1340	 0.177695170044899 
1341	 0.177720338106155 
1342	 0.177726626396179 
1343	 0.177716359496117 
1344	 0.177707999944687 
1345	 0.177719742059708 
1346	 0.177744045853615 
1347	 0.177777543663979 
1348	 0.177797868847847 
1349	 0.177797213196754 
1350	 0.177814453840256 
1351	 0.177826836705208 
1352	 0.177836731076241 
1353	 0.177843123674393 
1354	 0.177853792905807 
1355	 0.177851468324661 
1356	 0.1778314858675 
1357	 0.177828282117844 
1358	 0.177832052111626 
1359	 0.177835017442703 
1360	 0.177859261631966 
1361	 0.177849128842354 
1362	 0.177818283438683 
1363	 0.177784845232964 
1364	 0.177725166082382 
1365	 0.177679657936096 
1366	 0.177667438983917 
1367	 0.177613735198975 
1368	 0.177536398172379 
1369	 0.17745640873909 
1370	 0.177379310131073 
1371	 0.1772580742836 
1372	 0.177171945571899 
1373	 0.177114233374596 
1374	 0.17702154815197 
1375	 0.176933065056801 
1376	 0.176830187439919 
1377	 0.176711931824684 
1378	 0.176626920700073 
1379	 0.176526263356209 
1380	 0.176417514681816 
1381	 0.176320463418961 
1382	 0.176186412572861 
1383	 0.176063224673271 
1384	 0.175849914550781 
1385	 0.175615936517715 
1386	 0.175287544727325 
1387	 0.174890518188477 
1388	 0.174416363239288 
1389	 0.173877045512199 
1390	 0.17326520383358 
1391	 0.17256672680378 
1392	 0.171819120645523 
1393	 0.170988664031029 
1394	 0.170135125517845 
1395	 0.169207543134689 
1396	 0.168281555175781 
1397	 0.167279273271561 
1398	 0.166354462504387 
1399	 0.165462866425514 
1400	 0.16456538438797 
1401	 0.163693279027939 
1402	 0.162866964936256 
1403	 0.162044882774353 
1404	 0.16128571331501 
1405	 0.160652250051498 
1406	 0.160082206130028 
1407	 0.159560769796371 
1408	 0.159115508198738 
1409	 0.158692970871925 
1410	 0.15834903717041 
1411	 0.158186689019203 
1412	 0.158116981387138 
1413	 0.158235505223274 
1414	 0.158539801836014 
1415	 0.158950448036194 
1416	 0.159510716795921 
1417	 0.160170868039131 
1418	 0.161020696163177 
1419	 0.161818847060204 
1420	 0.162725493311882 
1421	 0.163573786616325 
1422	 0.164443790912628 
1423	 0.16524176299572 
1424	 0.166052132844925 
1425	 0.166741251945496 
1426	 0.167339384555817 
1427	 0.167890354990959 
1428	 0.16836105287075 
1429	 0.168801620602608 
1430	 0.169190302491188 
1431	 0.169527962803841 
1432	 0.169820517301559 
1433	 0.170065551996231 
1434	 0.170232862234116 
1435	 0.170409351587296 
1436	 0.170569643378258 
1437	 0.170676231384277 
1438	 0.170806840062141 
1439	 0.170912325382233 
1440	 0.170964047312737 
1441	 0.171009361743927 
1442	 0.171030700206757 
1443	 0.171042650938034 
1444	 0.171070292592049 
1445	 0.171073630452156 
1446	 0.171082869172096 
1447	 0.171081781387329 
1448	 0.171101465821266 
1449	 0.171143248677254 
1450	 0.171146959066391 
1451	 0.171142578125 
1452	 0.171138718724251 
1453	 0.171109706163406 
1454	 0.171085089445114 
1455	 0.171070247888565 
1456	 0.171042591333389 
1457	 0.17099417746067 
1458	 0.170968160033226 
1459	 0.170957431197166 
1460	 0.170931726694107 
1461	 0.170894891023636 
1462	 0.170870840549469 
1463	 0.170852154493332 
1464	 0.170832276344299 
1465	 0.170829206705093 
1466	 0.17081207036972 
1467	 0.170770823955536 
1468	 0.170743823051453 
1469	 0.170735239982605 
1470	 0.17070572078228 
1471	 0.170663669705391 
1472	 0.17063495516777 
1473	 0.170584663748741 
1474	 0.17055881023407 
1475	 0.170569881796837 
1476	 0.170558631420135 
1477	 0.17052486538887 
1478	 0.170507490634918 
1479	 0.170454323291779 
1480	 0.170436918735504 
1481	 0.170467659831047 
1482	 0.170459941029549 
1483	 0.170456930994987 
1484	 0.170431151986122 
1485	 0.170355618000031 
1486	 0.170320942997932 
1487	 0.170300915837288 
1488	 0.170270591974258 
1489	 0.170261770486832 
1490	 0.170240476727486 
1491	 0.17019547522068 
1492	 0.170164868235588 
1493	 0.17012844979763 
1494	 0.170085161924362 
1495	 0.170051664113998 
1496	 0.170029938220978 
1497	 0.169981732964516 
1498	 0.169926047325134 
1499	 0.169884145259857 
1500	 0.169820576906204 
1501	 0.16977946460247 
1502	 0.169774651527405 
1503	 0.169733315706253 
1504	 0.169678390026093 
1505	 0.169633150100708 
1506	 0.169567838311195 
1507	 0.169516384601593 
1508	 0.169482737779617 
1509	 0.169440314173698 
1510	 0.169393628835678 
1511	 0.169360890984535 
1512	 0.169332161545753 
1513	 0.169298604130745 
1514	 0.169283047318459 
1515	 0.169245570898056 
1516	 0.169174328446388 
1517	 0.169140711426735 
1518	 0.169115200638771 
1519	 0.16909284889698 
1520	 0.16911356151104 
1521	 0.169095039367676 
1522	 0.169054344296455 
1523	 0.169016003608704 
1524	 0.168955460190773 
1525	 0.168906658887863 
1526	 0.16885732114315 
1527	 0.168815076351166 
1528	 0.168783441185951 
1529	 0.168746471405029 
1530	 0.168716996908188 
1531	 0.168678909540176 
1532	 0.168629005551338 
1533	 0.16858346760273 
1534	 0.168527498841286 
1535	 0.168463930487633 
1536	 0.16840586066246 
1537	 0.168341606855392 
1538	 0.168272420763969 
1539	 0.168225094676018 
1540	 0.168193474411964 
1541	 0.16816158592701 
1542	 0.168131232261658 
1543	 0.16809293627739 
1544	 0.168041735887527 
1545	 0.168001607060432 
1546	 0.167957186698914 
1547	 0.167905032634735 
1548	 0.167890086770058 
1549	 0.167853757739067 
1550	 0.167797744274139 
1551	 0.167795345187187 
1552	 0.167751371860504 
1553	 0.16765683889389 
1554	 0.167633920907974 
1555	 0.167630180716515 
1556	 0.167595118284225 
1557	 0.167572095990181 
1558	 0.167541429400444 
1559	 0.167492732405663 
1560	 0.16745314002037 
1561	 0.167457833886147 
1562	 0.167478278279305 
1563	 0.167440563440323 
1564	 0.167396277189255 
1565	 0.167371690273285 
1566	 0.167296350002289 
1567	 0.167227879166603 
1568	 0.167187616229057 
1569	 0.167163655161858 
1570	 0.167131215333939 
1571	 0.167125925421715 
1572	 0.167082116007805 
1573	 0.167008474469185 
1574	 0.166963428258896 
1575	 0.166925802826881 
1576	 0.16687385737896 
1577	 0.166818097233772 
1578	 0.16678224503994 
1579	 0.166736155748367 
1580	 0.166699945926666 
1581	 0.16669936478138 
1582	 0.166670590639114 
1583	 0.166612282395363 
1584	 0.166592448949814 
1585	 0.166596978902817 
1586	 0.166576877236366 
1587	 0.166562467813492 
1588	 0.166536256670952 
1589	 0.166474848985672 
1590	 0.166462078690529 
1591	 0.166483029723167 
1592	 0.166469037532806 
1593	 0.166473731398582 
1594	 0.166446968913078 
1595	 0.16637547314167 
1596	 0.166334539651871 
1597	 0.1663006991148 
1598	 0.166259989142418 
1599	 0.166216731071472 
1600	 0.166175290942192 
1601	 0.166128262877464 
1602	 0.166097432374954 
1603	 0.166076675057411 
1604	 0.166057765483856 
1605	 0.166052460670471 
1606	 0.166037708520889 
1607	 0.166034266352654 
1608	 0.166000038385391 
1609	 0.165942639112473 
1610	 0.165899500250816 
1611	 0.165836691856384 
1612	 0.165781229734421 
1613	 0.165738135576248 
1614	 0.165696337819099 
1615	 0.165647700428963 
1616	 0.165617108345032 
1617	 0.165616452693939 
1618	 0.165576711297035 
1619	 0.165515348315239 
1620	 0.165471464395523 
1621	 0.165409088134766 
1622	 0.165379986166954 
1623	 0.165387347340584 
1624	 0.165358006954193 
1625	 0.165318816900253 
1626	 0.165298670530319 
1627	 0.165274247527122 
1628	 0.165254265069962 
1629	 0.165262162685394 
1630	 0.165231510996819 
1631	 0.165165647864342 
1632	 0.165128648281097 
1633	 0.165099576115608 
1634	 0.165051147341728 
1635	 0.164996951818466 
1636	 0.164956822991371 
1637	 0.164903283119202 
1638	 0.164874643087387 
1639	 0.164874061942101 
1640	 0.164860665798187 
1641	 0.164870515465736 
1642	 0.164831459522247 
1643	 0.164750978350639 
1644	 0.164707943797112 
1645	 0.164639532566071 
1646	 0.164610266685486 
1647	 0.164646342396736 
1648	 0.164638966321945 
1649	 0.164618521928787 
1650	 0.164578214287758 
1651	 0.164512246847153 
1652	 0.164463996887207 
1653	 0.164405390620232 
1654	 0.164378777146339 
1655	 0.164380997419357 
1656	 0.164353832602501 
1657	 0.164325088262558 
1658	 0.164296001195908 
1659	 0.164249405264854 
1660	 0.164227336645126 
1661	 0.164226844906807 
1662	 0.164207339286804 
1663	 0.164188325405121 
1664	 0.164143100380898 
1665	 0.164077505469322 
1666	 0.164067208766937 
1667	 0.164037838578224 
1668	 0.164049610495567 
1669	 0.164020419120789 
1670	 0.163947582244873 
1671	 0.163887649774551 
1672	 0.163837864995003 
1673	 0.163813918828964 
1674	 0.163785472512245 
1675	 0.163753315806389 
1676	 0.163726806640625 
1677	 0.163681611418724 
1678	 0.163649007678032 
1679	 0.163630321621895 
1680	 0.163593381643295 
1681	 0.163551166653633 
1682	 0.163502633571625 
1683	 0.163447290658951 
1684	 0.163429617881775 
1685	 0.163431257009506 
1686	 0.163438811898232 
1687	 0.163446933031082 
1688	 0.163398206233978 
1689	 0.163332641124725 
1690	 0.163285121321678 
1691	 0.163235202431679 
1692	 0.163210228085518 
1693	 0.163208827376366 
1694	 0.163205802440643 
1695	 0.1631960272789 
1696	 0.163185358047485 
1697	 0.163170725107193 
1698	 0.163121744990349 
1699	 0.163070738315582 
1700	 0.163047939538956 
1701	 0.163026094436646 
1702	 0.163030087947845 
1703	 0.163020372390747 
1704	 0.162969976663589 
1705	 0.162943169474602 
1706	 0.162883654236794 
1707	 0.162838146090508 
1708	 0.162889391183853 
1709	 0.162919208407402 
1710	 0.162912592291832 
1711	 0.162899494171143 
1712	 0.162839367985725 
1713	 0.162770599126816 
1714	 0.162752538919449 
1715	 0.162779495120049 
1716	 0.16281832754612 
1717	 0.162773877382278 
1718	 0.162661045789719 
1719	 0.162562474608421 
1720	 0.162437796592712 
1721	 0.162382587790489 
1722	 0.162415236234665 
1723	 0.162429302930832 
1724	 0.162423744797707 
1725	 0.162381023168564 
1726	 0.162330463528633 
1727	 0.162305518984795 
1728	 0.162306532263756 
1729	 0.16229934990406 
1730	 0.162299796938896 
1731	 0.162252306938171 
1732	 0.162171065807343 
1733	 0.162108406424522 
1734	 0.162018552422523 
1735	 0.161978229880333 
1736	 0.161979719996452 
1737	 0.161970034241676 
1738	 0.161951392889023 
1739	 0.161918848752975 
1740	 0.161880001425743 
1741	 0.161834448575974 
1742	 0.161799132823944 
1743	 0.161718711256981 
1744	 0.161625817418098 
1745	 0.161576256155968 
1746	 0.161504164338112 
1747	 0.16149128973484 
1748	 0.16156630218029 
1749	 0.161552488803864 
1750	 0.161491990089417 
1751	 0.161470204591751 
1752	 0.161362186074257 
1753	 0.161286935210228 
1754	 0.161313652992249 
1755	 0.161273241043091 
1756	 0.161249533295631 
1757	 0.161240085959435 
1758	 0.161179050803185 
1759	 0.161145240068436 
1760	 0.161098003387451 
1761	 0.161051794886589 
1762	 0.161041781306267 
1763	 0.1610327064991 
1764	 0.161043077707291 
1765	 0.161050200462341 
1766	 0.160998746752739 
1767	 0.160951063036919 
1768	 0.160919114947319 
1769	 0.160870939493179 
1770	 0.160870537161827 
1771	 0.160879522562027 
1772	 0.160844743251801 
1773	 0.160799771547318 
1774	 0.160806804895401 
1775	 0.160782620310783 
1776	 0.160704076290131 
1777	 0.160705983638763 
1778	 0.160633474588394 
1779	 0.160637080669403 
1780	 0.160601362586021 
1781	 0.160527974367142 
1782	 0.160519853234291 
1783	 0.160540699958801 
1784	 0.160593345761299 
1785	 0.160637199878693 
1786	 0.16062131524086 
1787	 0.160527899861336 
1788	 0.160428076982498 
1789	 0.16038978099823 
1790	 0.160396039485931 
1791	 0.160439178347588 
1792	 0.160421937704086 
1793	 0.160362139344215 
1794	 0.160268306732178 
1795	 0.160183161497116 
1796	 0.160164177417755 
1797	 0.160176649689674 
1798	 0.160239189863205 
1799	 0.160228207707405 
1800	 0.160195559263229 
1801	 0.160168707370758 
1802	 0.160068511962891 
1803	 0.160018533468246 
1804	 0.160004571080208 
1805	 0.159962728619576 
1806	 0.15993370115757 
1807	 0.159911826252937 
1808	 0.159865990281105 
1809	 0.159851223230362 
1810	 0.159900888800621 
1811	 0.159953862428665 
1812	 0.159970283508301 
1813	 0.159958481788635 
1814	 0.159919232130051 
1815	 0.159902334213257 
1816	 0.159856125712395 
1817	 0.159817546606064 
1818	 0.159799665212631 
1819	 0.159785553812981 
1820	 0.159797996282578 
1821	 0.159831285476685 
1822	 0.159836575388908 
1823	 0.159826785326004 
1824	 0.159838736057281 
1825	 0.159872248768806 
1826	 0.159918129444122 
1827	 0.159918680787086 
1828	 0.159881472587585 
1829	 0.159840121865273 
1830	 0.159767180681229 
1831	 0.166691914200783 
1832	 0.166728079319 
1833	 0.16669112443924 
1834	 0.166628494858742 
1835	 0.166555359959602 
1836	 0.166345104575157 
1837	 0.166250452399254 
1838	 0.166208043694496 
1839	 0.166200146079063 
1840	 0.16620709002018 
1841	 0.166258230805397 
1842	 0.166199579834938 
1843	 0.166132569313049 
1844	 0.166083991527557 
1845	 0.165970519185066 
1846	 0.165916368365288 
1847	 0.165928870439529 
1848	 0.165909707546234 
1849	 0.165843158960342 
1850	 0.16584624350071 
1851	 0.165789574384689 
1852	 0.165741160511971 
1853	 0.165729314088821 
1854	 0.165586993098259 
1855	 0.165502369403839 
1856	 0.165403783321381 
1857	 0.16535659134388 
1858	 0.165311798453331 
1859	 0.165383815765381 
1860	 0.165395602583885 
1861	 0.165322124958038 
1862	 0.165212154388428 
1863	 0.165072560310364 
1864	 0.16495618224144 
1865	 0.1648820489645 
1866	 0.164808943867683 
1867	 0.164761662483215 
1868	 0.164680525660515 
1869	 0.16462405025959 
1870	 0.164601802825928 
1871	 0.164605006575584 
1872	 0.164595171809196 
1873	 0.164560556411743 
1874	 0.164459630846977 
1875	 0.164300307631493 
1876	 0.164154872298241 
1877	 0.163994982838631 
1878	 0.163805767893791 
1879	 0.163664147257805 
1880	 0.163495793938637 
1881	 0.163236185908318 
1882	 0.162972375750542 
1883	 0.162735491991043 
1884	 0.162545278668404 
1885	 0.162352353334427 
1886	 0.162185117602348 
1887	 0.161991253495216 
1888	 0.161750391125679 
1889	 0.161430358886719 
1890	 0.161162540316582 
1891	 0.16094246506691 
1892	 0.160691186785698 
1893	 0.160450369119644 
1894	 0.160205468535423 
1895	 0.159889444708824 
1896	 0.159494340419769 
1897	 0.159102737903595 
1898	 0.158780694007874 
1899	 0.158449918031693 
1900	 0.158100694417953 
1901	 0.157847240567207 
1902	 0.157651335000992 
1903	 0.157345369458199 
1904	 0.157100334763527 
1905	 0.156899094581604 
1906	 0.156676337122917 
1907	 0.156498804688454 
1908	 0.156340301036835 
1909	 0.156197413802147 
1910	 0.156057015061378 
1911	 0.155901104211807 
1912	 0.155786335468292 
1913	 0.155761167407036 
1914	 0.155695378780365 
1915	 0.155621737241745 
1916	 0.155607953667641 
1917	 0.155546382069588 
1918	 0.155542925000191 
1919	 0.155639573931694 
1920	 0.155689552426338 
1921	 0.155752390623093 
1922	 0.155772715806961 
1923	 0.155754178762436 
1924	 0.155692115426064 
1925	 0.155707508325577 
1926	 0.155678540468216 
1927	 0.15568083524704 
1928	 0.155735954642296 
1929	 0.155748963356018 
1930	 0.155736759305 
1931	 0.15565513074398 
1932	 0.155570060014725 
1933	 0.155534833669662 
1934	 0.155488416552544 
1935	 0.155478984117508 
1936	 0.155537322163582 
1937	 0.155567780137062 
1938	 0.155555412173271 
1939	 0.15553779900074 
1940	 0.155527263879776 
1941	 0.155512303113937 
1942	 0.155483245849609 
1943	 0.155471593141556 
1944	 0.155457690358162 
1945	 0.155453190207481 
1946	 0.155448585748672 
1947	 0.155459970235825 
1948	 0.155406251549721 
1949	 0.155404254794121 
1950	 0.155440181493759 
1951	 0.155451744794846 
1952	 0.155524462461472 
1953	 0.155557915568352 
1954	 0.155504748225212 
1955	 0.15552806854248 
1956	 0.155533745884895 
1957	 0.155526101589203 
1958	 0.15554766356945 
1959	 0.155561625957489 
1960	 0.155553489923477 
1961	 0.155484855175018 
1962	 0.15554042160511 
1963	 0.155617460608482 
1964	 0.155602619051933 
1965	 0.155658200383186 
1966	 0.155663132667542 
1967	 0.155566155910492 
1968	 0.155535772442818 
1969	 0.155509203672409 
1970	 0.155523985624313 
1971	 0.155634999275208 
1972	 0.155640468001366 
1973	 0.155610471963882 
1974	 0.155580475926399 
1975	 0.155548468232155 
1976	 0.15545542538166 
1977	 0.155453413724899 
1978	 0.155532374978065 
1979	 0.155602797865868 
1980	 0.155706003308296 
1981	 0.155748605728149 
1982	 0.155744612216949 
1983	 0.155797839164734 
1984	 0.155840769410133 
1985	 0.155887305736542 
1986	 0.155985221266747 
1987	 0.156087204813957 
1988	 0.156118839979172 
1989	 0.156099155545235 
1990	 0.15606701374054 
1991	 0.156071662902832 
1992	 0.156118020415306 
1993	 0.156179964542389 
1994	 0.156224653124809 
1995	 0.156290575861931 
1996	 0.156354352831841 
1997	 0.15637481212616 
1998	 0.15642674267292 
1999	 0.156480848789215 
2000	 0.156646057963371 
2001	 0.156728148460388 
2002	 0.156820937991142 
2003	 0.156987920403481 
2004	 0.157073587179184 
2005	 0.157146066427231 
2006	 0.157249078154564 
2007	 0.157307431101799 
2008	 0.15729258954525 
2009	 0.157333478331566 
2010	 0.157372504472733 
2011	 0.157436057925224 
2012	 0.157532811164856 
2013	 0.157636493444443 
2014	 0.1576828956604 
2015	 0.157776325941086 
2016	 0.157856374979019 
2017	 0.157873347401619 
2018	 0.157943904399872 
2019	 0.158059224486351 
2020	 0.158159181475639 
2021	 0.158268824219704 
2022	 0.158387213945389 
2023	 0.158511310815811 
2024	 0.158619627356529 
2025	 0.158765569329262 
2026	 0.1588424295187 
2027	 0.158861264586449 
2028	 0.158903732895851 
2029	 0.158976152539253 
2030	 0.159012362360954 
2031	 0.159050196409225 
2032	 0.159160003066063 
2033	 0.159207805991173 
2034	 0.15924708545208 
2035	 0.159342676401138 
2036	 0.159509286284447 
2037	 0.159607723355293 
2038	 0.159739136695862 
2039	 0.159826219081879 
2040	 0.159842118620872 
2041	 0.159889131784439 
2042	 0.159970611333847 
2043	 0.159945651888847 
2044	 0.15991185605526 
2045	 0.160001128911972 
2046	 0.160111755132675 
2047	 0.160168588161469 
2048	 0.16019007563591 
2049	 0.160207733511925 
2050	 0.160223051905632 
2051	 0.1601602435112 
2052	 0.16016161441803 
2053	 0.16021803021431 
2054	 0.160255506634712 
2055	 0.160287469625473 
2056	 0.160323023796082 
2057	 0.160377755761147 
2058	 0.16043409705162 
2059	 0.160426571965218 
2060	 0.160412803292274 
2061	 0.160412713885307 
2062	 0.160400301218033 
2063	 0.160337850451469 
2064	 0.160297051072121 
2065	 0.160346776247025 
2066	 0.160458400845528 
2067	 0.160513654351234 
2068	 0.160664081573486 
2069	 0.160734057426453 
2070	 0.16070368885994 
2071	 0.160692289471626 
2072	 0.160668507218361 
2073	 0.160672634840012 
2074	 0.160660699009895 
2075	 0.16066874563694 
2076	 0.160729587078094 
2077	 0.160767674446106 
2078	 0.160736918449402 
2079	 0.160741418600082 
2080	 0.160719975829124 
2081	 0.160649582743645 
2082	 0.160622626543045 
2083	 0.160627394914627 
2084	 0.160588130354881 
2085	 0.160536542534828 
2086	 0.160506874322891 
2087	 0.160473257303238 
2088	 0.160425677895546 
2089	 0.160382106900215 
2090	 0.160349428653717 
2091	 0.160271123051643 
2092	 0.160206034779549 
2093	 0.160173684358597 
2094	 0.160087212920189 
2095	 0.160039350390434 
2096	 0.159951150417328 
2097	 0.159836664795876 
2098	 0.159677490592003 
2099	 0.159569501876831 
2100	 0.15944716334343 
2101	 0.159353092312813 
2102	 0.159287661314011 
2103	 0.159243687987328 
2104	 0.159218430519104 
2105	 0.159193262457848 
2106	 0.159238666296005 
2107	 0.159204691648483 
2108	 0.159087657928467 
2109	 0.158981844782829 
2110	 0.158913522958755 
2111	 0.158872827887535 
2112	 0.158812642097473 
2113	 0.158755749464035 
2114	 0.158749550580978 
2115	 0.15870900452137 
2116	 0.158712297677994 
2117	 0.158837869763374 
2118	 0.15888175368309 
2119	 0.158877491950989 
2120	 0.158883929252625 
2121	 0.158866956830025 
2122	 0.158885046839714 
2123	 0.158916041254997 
2124	 0.158930420875549 
2125	 0.158982276916504 
2126	 0.159009248018265 
2127	 0.158970072865486 
2128	 0.158933386206627 
2129	 0.158933416008949 
2130	 0.158902436494827 
2131	 0.158855810761452 
2132	 0.158905595541 
2133	 0.158958166837692 
2134	 0.159106940031052 
2135	 0.159084975719452 
2136	 0.158972874283791 
2137	 0.158923357725143 
2138	 0.158808663487434 
2139	 0.158687189221382 
2140	 0.158620804548264 
2141	 0.158552601933479 
2142	 0.158428162336349 
2143	 0.158297091722488 
2144	 0.158192530274391 
2145	 0.158116191625595 
2146	 0.158008426427841 
2147	 0.157787084579468 
2148	 0.157581195235252 
2149	 0.15740641951561 
2150	 0.157085061073303 
2151	 0.156809419393539 
2152	 0.156604394316673 
2153	 0.156480640172958 
2154	 0.156248867511749 
2155	 0.156056001782417 
2156	 0.155776888132095 
2157	 0.15537928044796 
2158	 0.155021160840988 
2159	 0.154656231403351 
2160	 0.154303997755051 
2161	 0.153961703181267 
2162	 0.153574898838997 
2163	 0.153213694691658 
2164	 0.152770578861237 
2165	 0.152250051498413 
2166	 0.151638269424438 
2167	 0.151039823889732 
2168	 0.150520622730255 
2169	 0.149948552250862 
2170	 0.14943353831768 
2171	 0.148874938488007 
2172	 0.148091971874237 
2173	 0.147347509860992 
2174	 0.146581783890724 
2175	 0.14574371278286 
2176	 0.144813805818558 
2177	 0.143926128745079 
2178	 0.14299863576889 
2179	 0.142054557800293 
2180	 0.141151040792465 
2181	 0.140166461467743 
2182	 0.13909612596035 
2183	 0.138030111789703 
2184	 0.136886686086655 
2185	 0.13581907749176 
2186	 0.134797349572182 
2187	 0.133708938956261 
2188	 0.132721692323685 
2189	 0.131803959608078 
2190	 0.130768299102783 
2191	 0.129814982414246 
2192	 0.128967568278313 
2193	 0.128124833106995 
2194	 0.127357602119446 
2195	 0.12669363617897 
2196	 0.126179441809654 
2197	 0.125753238797188 
2198	 0.125406503677368 
2199	 0.125268638134003 
2200	 0.125096634030342 
2201	 0.124900929629803 
2202	 0.124840691685677 
2203	 0.124830409884453 
2204	 0.125004336237907 
2205	 0.125464960932732 
2206	 0.125718653202057 
2207	 0.125884771347046 
2208	 0.126267179846764 
2209	 0.126665696501732 
2210	 0.127082347869873 
2211	 0.127630054950714 
2212	 0.128354400396347 
2213	 0.128949508070946 
2214	 0.129493877291679 
2215	 0.130051001906395 
2216	 0.130566954612732 
2217	 0.131061643362045 
2218	 0.131596341729164 
2219	 0.132247671484947 
2220	 0.132910251617432 
2221	 0.133464083075523 
2222	 0.133969977498055 
2223	 0.134505495429039 
2224	 0.135051921010017 
2225	 0.135546207427979 
2226	 0.136084690690041 
2227	 0.136451750993729 
2228	 0.136634364724159 
2229	 0.136962205171585 
2230	 0.137340202927589 
2231	 0.137566119432449 
2232	 0.137721434235573 
2233	 0.137954771518707 
2234	 0.138149112462997 
2235	 0.138295665383339 
2236	 0.138490736484528 
2237	 0.138684630393982 
2238	 0.138829007744789 
2239	 0.138871222734451 
2240	 0.138957411050797 
2241	 0.139021575450897 
2242	 0.138932630419731 
2243	 0.138701856136322 
2244	 0.138673692941666 
2245	 0.138896837830544 
2246	 0.138978824019432 
2247	 0.139088720083237 
2248	 0.139190152287483 
2249	 0.139039367437363 
2250	 0.139025554060936 
2251	 0.139125987887383 
2252	 0.139232441782951 
2253	 0.139388352632523 
2254	 0.139536619186401 
2255	 0.139703720808029 
2256	 0.139921605587006 
2257	 0.140145301818848 
2258	 0.140393272042274 
2259	 0.140791058540344 
2260	 0.141001611948013 
2261	 0.14105886220932 
2262	 0.141295343637466 
2263	 0.141565605998039 
2264	 0.141711086034775 
2265	 0.141923472285271 
2266	 0.142038494348526 
2267	 0.141874268651009 
2268	 0.142009854316711 
2269	 0.142451539635658 
2270	 0.142618030309677 
2271	 0.142729490995407 
2272	 0.142874971032143 
2273	 0.142798215150833 
2274	 0.142702683806419 
2275	 0.142883509397507 
2276	 0.142973855137825 
2277	 0.142998546361923 
2278	 0.143138617277145 
2279	 0.143229126930237 
2280	 0.143145978450775 
2281	 0.143052205443382 
2282	 0.142892837524414 
2283	 0.142621457576752 
2284	 0.142440930008888 
2285	 0.142215833067894 
2286	 0.142047926783562 
2287	 0.141951099038124 
2288	 0.141752287745476 
2289	 0.141667440533638 
2290	 0.141554817557335 
2291	 0.14139649271965 
2292	 0.141197174787521 
2293	 0.141027808189392 
2294	 0.140855804085732 
2295	 0.140659272670746 
2296	 0.140436246991158 
2297	 0.140204817056656 
2298	 0.139954671263695 
2299	 0.139717906713486 
2300	 0.139468550682068 
2301	 0.139260202646255 
2302	 0.13908264040947 
2303	 0.138860031962395 
2304	 0.138691276311874 
2305	 0.138423085212708 
2306	 0.138038039207458 
2307	 0.137723162770271 
2308	 0.137413904070854 
2309	 0.137053593993187 
2310	 0.136732459068298 
2311	 0.136351242661476 
2312	 0.135849267244339 
2313	 0.135415151715279 
2314	 0.13498392701149 
2315	 0.134555861353874 
2316	 0.134243160486221 
2317	 0.13369108736515 
2318	 0.133012399077415 
2319	 0.132692962884903 
2320	 0.132368013262749 
2321	 0.132029443979263 
2322	 0.131654024124146 
2323	 0.131132364273071 
2324	 0.130644768476486 
2325	 0.130253240466118 
2326	 0.130110800266266 
2327	 0.129927963018417 
2328	 0.129409611225128 
2329	 0.128959655761719 
2330	 0.128557682037354 
2331	 0.128013402223587 
2332	 0.127573505043983 
2333	 0.12720999121666 
2334	 0.126704156398773 
2335	 0.126255601644516 
2336	 0.125950783491135 
2337	 0.125430762767792 
2338	 0.125064358115196 
2339	 0.125026926398277 
2340	 0.125019982457161 
2341	 0.125038966536522 
2342	 0.12484597414732 
2343	 0.124619640409946 
2344	 0.124276734888554 
2345	 0.123803488910198 
2346	 0.123676553368568 
2347	 0.123631648719311 
2348	 0.123464815318584 
2349	 0.123469650745392 
2350	 0.123521216213703 
2351	 0.123619318008423 
2352	 0.123597748577595 
2353	 0.123584128916264 
2354	 0.123660251498222 
2355	 0.123632282018661 
2356	 0.123832851648331 
2357	 0.124381527304649 
2358	 0.124634779989719 
2359	 0.124736063182354 
2360	 0.124878957867622 
2361	 0.124936826527119 
2362	 0.125110268592834 
2363	 0.125426918268204 
2364	 0.12565866112709 
2365	 0.125840783119202 
2366	 0.125998318195343 
2367	 0.126180022954941 
2368	 0.126286745071411 
2369	 0.126260235905647 
2370	 0.126327216625214 
2371	 0.126497015357018 
2372	 0.126429811120033 
2373	 0.126240089535713 
2374	 0.126236766576767 
2375	 0.126102536916733 
2376	 0.12612196803093 
2377	 0.126391127705574 
2378	 0.126530066132545 
2379	 0.126736611127853 
2380	 0.126681849360466 
2381	 0.126332670450211 
2382	 0.126349002122879 
2383	 0.126367896795273 
2384	 0.126424938440323 
2385	 0.126859679818153 
2386	 0.126965925097466 
2387	 0.12683267891407 
2388	 0.126762509346008 
2389	 0.126613289117813 
2390	 0.126585990190506 
2391	 0.126575082540512 
2392	 0.126542806625366 
2393	 0.126601248979568 
2394	 0.126562684774399 
2395	 0.126404628157616 
2396	 0.126383438706398 
2397	 0.126478046178818 
2398	 0.126441776752472 
2399	 0.126378953456879 
2400	 0.126278936862946 
2401	 0.126067250967026 
2402	 0.125880092382431 
2403	 0.12576512992382 
2404	 0.125599950551987 
2405	 0.125212863087654 
2406	 0.125191390514374 
2407	 0.125477761030197 
2408	 0.125415742397308 
2409	 0.125516667962074 
2410	 0.125309213995934 
2411	 0.124611578881741 
2412	 0.124138049781322 
2413	 0.123653553426266 
2414	 0.123229511082172 
2415	 0.122797943651676 
2416	 0.122530102729797 
2417	 0.122432954609394 
2418	 0.122242853045464 
2419	 0.121968142688274 
2420	 0.121886357665062 
2421	 0.122250430285931 
2422	 0.121875531971455 
2423	 0.120994262397289 
2424	 0.120747700333595 
2425	 0.120231151580811 
2426	 0.119909971952438 
2427	 0.12046741694212 
2428	 0.120360836386681 
2429	 0.119639873504639 
2430	 0.119206242263317 
2431	 0.118711337447166 
2432	 0.118539787828922 
2433	 0.118542701005936 
2434	 0.118532322347164 
2435	 0.118954889476299 
2436	 0.1188088580966 
2437	 0.118048295378685 
2438	 0.118025600910187 
2439	 0.118278674781322 
2440	 0.11829986423254 
2441	 0.118736162781715 
2442	 0.118682451546192 
2443	 0.117995217442513 
2444	 0.117845863103867 
2445	 0.11787673085928 
2446	 0.117882452905178 
2447	 0.118107572197914 
2448	 0.118012681603432 
2449	 0.117734611034393 
2450	 0.117646858096123 
2451	 0.117481850087643 
2452	 0.117486275732517 
2453	 0.11771859228611 
2454	 0.118048705160618 
2455	 0.117632783949375 
2456	 0.117151446640491 
2457	 0.117109760642052 
2458	 0.116919204592705 
2459	 0.117567420005798 
2460	 0.118587680160999 
2461	 0.118890754878521 
2462	 0.119137294590473 
2463	 0.118962347507477 
2464	 0.118625469505787 
2465	 0.118509948253632 
2466	 0.118708461523056 
2467	 0.118637569248676 
2468	 0.118344083428383 
2469	 0.11821424216032 
2470	 0.117764741182327 
2471	 0.117758899927139 
2472	 0.118494182825089 
2473	 0.118740923702717 
2474	 0.118967033922672 
2475	 0.119059935212135 
2476	 0.118500635027885 
2477	 0.118478201329708 
2478	 0.119004674255848 
2479	 0.119108200073242 
2480	 0.119168721139431 
2481	 0.119282886385918 
2482	 0.119118347764015 
2483	 0.119056649506092 
2484	 0.119344614446163 
2485	 0.119272589683533 
2486	 0.118573561310768 
2487	 0.118633687496185 
2488	 0.119214832782745 
2489	 0.119294092059135 
2490	 0.119687542319298 
2491	 0.119703121483326 
2492	 0.118864476680756 
2493	 0.118726164102554 
2494	 0.118766590952873 
2495	 0.11921264976263 
2496	 0.120530940592289 
2497	 0.120661169290543 
2498	 0.120538249611855 
2499	 0.120367772877216 
2500	 0.119022652506828 
