
Text conversion of header file \A_MEDIDAS\PROJETOS\BRASIL\BLOCO GAVIAO\JACOBINA\CANIF27\sco\CANIF27_029.70_00001.asd.ref
 -------------------------------------------------------------
                                                                                                                                                            
The instrument number was  16586/1
New ASD spectrum file: Program version = 6.00 file version = 1.00
Spectrum saved: 10/16/2018 at 10:16:19
VNIR integration time : 34
VNIR channel 1 wavelength = 350 wavelength step = 1
There were 50 samples per data value
xmin = 350 xmax= 2500
ymin= 0 ymax= 1.25
The instrument digitizes spectral values to 16 bits
SWIR1 gain was 203 offset was 2094
SWIR2 gain was 499 offset was 2264
Join between VNIR and SWIR1 was 1000 nm
Join between SWIR1 and SWIR2 was 1830 nm
Absolute Reflectance is Enabled
The Absolute Reflectance File is abs165861.ref
VNIR dark signal subtracted
50 dark measurements taken Tue Oct 16 10:13:56 2018
DCC value was 0
Data is compared to a white reference:
60 white reference measurements taken Tue Oct 16 10:14:04 2018
There was no foreoptic attached
Spectrum file is reflectance data
GPS-Latitude is S0
GPS-Longitude is E0
GPS-Altitude is 0
GPS-UTC is Wed Dec 31 17:00:00 1969

Smart Detector
Serial#  0
Signal (A)  0.000E00
Dark (A)  0.000E00
Ref (A)  0.000E00
Status  0 - Uninitialized
Gain  E-4
Averaging  0
Temp (C)  0.0
Humid (%)  0.0

Reflectance Absolute
Wavelength	CANIF27_29.70_00001.asd.ref
350	 0.186527594923973 
351	 0.17854069173336 
352	 0.182131707668304 
353	 0.192046537995338 
354	 0.196995049715042 
355	 0.185008481144905 
356	 0.171298056840897 
357	 0.170188322663307 
358	 0.185855761170387 
359	 0.186380967497826 
360	 0.18461886048317 
361	 0.185773000121117 
362	 0.187950223684311 
363	 0.185896828770638 
364	 0.187162607908249 
365	 0.191834107041359 
366	 0.188347905874252 
367	 0.184943452477455 
368	 0.186643645167351 
369	 0.193222552537918 
370	 0.193380773067474 
371	 0.190353080630302 
372	 0.188202172517776 
373	 0.189999207854271 
374	 0.191035777330399 
375	 0.191751345992088 
376	 0.191646203398705 
377	 0.188986167311668 
378	 0.189009159803391 
379	 0.189956679940224 
380	 0.190052554011345 
381	 0.190838545560837 
382	 0.190148934721947 
383	 0.190174713730812 
384	 0.192897394299507 
385	 0.190089359879494 
386	 0.189017131924629 
387	 0.190649271011353 
388	 0.189940676093102 
389	 0.191109731793404 
390	 0.191106587648392 
391	 0.189064264297485 
392	 0.190870255231857 
393	 0.192607864737511 
394	 0.192488387227058 
395	 0.190510600805283 
396	 0.191312149167061 
397	 0.192189529538155 
398	 0.191923931241035 
399	 0.190897554159164 
400	 0.191083654761314 
401	 0.191947817802429 
402	 0.19288481771946 
403	 0.194002628326416 
404	 0.19330245256424 
405	 0.192299857735634 
406	 0.192791998386383 
407	 0.193260222673416 
408	 0.1932612657547 
409	 0.19291852414608 
410	 0.192740947008133 
411	 0.193012416362762 
412	 0.193450629711151 
413	 0.193594768643379 
414	 0.192746371030807 
415	 0.193649023771286 
416	 0.194500133395195 
417	 0.193553626537323 
418	 0.194043040275574 
419	 0.194093897938728 
420	 0.193632423877716 
421	 0.193733721971512 
422	 0.194419339299202 
423	 0.194996252655983 
424	 0.194936335086823 
425	 0.194033056497574 
426	 0.193675577640533 
427	 0.193737268447876 
428	 0.193855941295624 
429	 0.194553300738335 
430	 0.194976985454559 
431	 0.194879397749901 
432	 0.194491922855377 
433	 0.194459497928619 
434	 0.194634541869164 
435	 0.194755092263222 
436	 0.194540485739708 
437	 0.194527670741081 
438	 0.194868639111519 
439	 0.195351272821426 
440	 0.19487065076828 
441	 0.194696769118309 
442	 0.194999843835831 
443	 0.195169910788536 
444	 0.194775804877281 
445	 0.194614231586456 
446	 0.194927707314491 
447	 0.194828391075134 
448	 0.194622859358788 
449	 0.194466024637222 
450	 0.194429367780685 
451	 0.194400414824486 
452	 0.19424307346344 
453	 0.194065660238266 
454	 0.19411726295948 
455	 0.194033712148666 
456	 0.193923950195313 
457	 0.193810611963272 
458	 0.193378135561943 
459	 0.193269103765488 
460	 0.193203657865524 
461	 0.192821457982063 
462	 0.192979827523232 
463	 0.193045318126678 
464	 0.192834004759789 
465	 0.192619740962982 
466	 0.192421078681946 
467	 0.192318588495255 
468	 0.192294254899025 
469	 0.192104518413544 
470	 0.191853389143944 
471	 0.191655531525612 
472	 0.191569715738297 
473	 0.191260829567909 
474	 0.191060036420822 
475	 0.191069170832634 
476	 0.191097691655159 
477	 0.191171929240227 
478	 0.191040560603142 
479	 0.190646454691887 
480	 0.190589800477028 
481	 0.19055500626564 
482	 0.190508738160133 
483	 0.190530002117157 
484	 0.190462216734886 
485	 0.190408155322075 
486	 0.190386787056923 
487	 0.1902736723423 
488	 0.190206229686737 
489	 0.190242692828178 
490	 0.190326273441315 
491	 0.190070420503616 
492	 0.189984902739525 
493	 0.190089374780655 
494	 0.190098881721497 
495	 0.190158382058144 
496	 0.190185025334358 
497	 0.190111562609673 
498	 0.189922735095024 
499	 0.189953491091728 
500	 0.189999043941498 
501	 0.189814880490303 
502	 0.189761713147163 
503	 0.189783126115799 
504	 0.189821124076843 
505	 0.189824223518372 
506	 0.189727991819382 
507	 0.18951116502285 
508	 0.189266994595528 
509	 0.189314678311348 
510	 0.18942879140377 
511	 0.189455911517143 
512	 0.189332500100136 
513	 0.189361974596977 
514	 0.189266040921211 
515	 0.189036950469017 
516	 0.188968673348427 
517	 0.189050316810608 
518	 0.189030975103378 
519	 0.188806965947151 
520	 0.18878772854805 
521	 0.188800513744354 
522	 0.188757747411728 
523	 0.188635766506195 
524	 0.18858627974987 
525	 0.188538789749146 
526	 0.188460156321526 
527	 0.188392847776413 
528	 0.18829308450222 
529	 0.188222259283066 
530	 0.188212990760803 
531	 0.188127726316452 
532	 0.187944814562798 
533	 0.187765836715698 
534	 0.187742218375206 
535	 0.187692284584045 
536	 0.187590166926384 
537	 0.187458232045174 
538	 0.187354117631912 
539	 0.187402918934822 
540	 0.187442526221275 
541	 0.187288045883179 
542	 0.18707175552845 
543	 0.186971768736839 
544	 0.186987847089767 
545	 0.186969593167305 
546	 0.186890512704849 
547	 0.186830192804337 
548	 0.186827152967453 
549	 0.186786502599716 
550	 0.186752304434776 
551	 0.186685726046562 
552	 0.186544045805931 
553	 0.186435326933861 
554	 0.186375692486763 
555	 0.186407431960106 
556	 0.186603307723999 
557	 0.186861112713814 
558	 0.186990305781364 
559	 0.186878740787506 
560	 0.186633974313736 
561	 0.186456799507141 
562	 0.186413735151291 
563	 0.186464965343475 
564	 0.186413049697876 
565	 0.186353713274002 
566	 0.18637727200985 
567	 0.186518177390099 
568	 0.186864942312241 
569	 0.187176465988159 
570	 0.187195315957069 
571	 0.186968132853508 
572	 0.186529219150543 
573	 0.185972824692726 
574	 0.185441195964813 
575	 0.18507944047451 
576	 0.184837251901627 
577	 0.184670701622963 
578	 0.184621006250381 
579	 0.18450303375721 
580	 0.184159532189369 
581	 0.183552414178848 
582	 0.183041766285896 
583	 0.182656794786453 
584	 0.182557806372643 
585	 0.182992875576019 
586	 0.183615565299988 
587	 0.183997288346291 
588	 0.183927968144417 
589	 0.183658316731453 
590	 0.183324113488197 
591	 0.183042749762535 
592	 0.182896241545677 
593	 0.182923838496208 
594	 0.182936251163483 
595	 0.182845816016197 
596	 0.182693243026733 
597	 0.182464003562927 
598	 0.182171702384949 
599	 0.181892782449722 
600	 0.181863024830818 
601	 0.181921690702438 
602	 0.181975081562996 
603	 0.181969821453094 
604	 0.181922823190689 
605	 0.181712448596954 
606	 0.181380331516266 
607	 0.181177541613579 
608	 0.181124180555344 
609	 0.18114210665226 
610	 0.18112975358963 
611	 0.180999293923378 
612	 0.181024730205536 
613	 0.181137830018997 
614	 0.181087836623192 
615	 0.181031793355942 
616	 0.180960774421692 
617	 0.18086464703083 
618	 0.180756598711014 
619	 0.180682525038719 
620	 0.180608883500099 
621	 0.180495992302895 
622	 0.180366337299347 
623	 0.180300280451775 
624	 0.18026864528656 
625	 0.180171117186546 
626	 0.180029928684235 
627	 0.179948389530182 
628	 0.179947704076767 
629	 0.179890930652618 
630	 0.179829835891724 
631	 0.179776027798653 
632	 0.179729521274567 
633	 0.179685086011887 
634	 0.179648905992508 
635	 0.179604604840279 
636	 0.179528027772903 
637	 0.179527997970581 
638	 0.179529666900635 
639	 0.179488703608513 
640	 0.179472714662552 
641	 0.179448485374451 
642	 0.179400429129601 
643	 0.179336562752724 
644	 0.179349437355995 
645	 0.179310336709023 
646	 0.179216742515564 
647	 0.179169118404388 
648	 0.179091274738312 
649	 0.179032400250435 
650	 0.179033234715462 
651	 0.179086431860924 
652	 0.179149076342583 
653	 0.179166227579117 
654	 0.179115578532219 
655	 0.179118633270264 
656	 0.179144442081451 
657	 0.179179832339287 
658	 0.179227665066719 
659	 0.179246112704277 
660	 0.179300978779793 
661	 0.179404020309448 
662	 0.179434910416603 
663	 0.179485246539116 
664	 0.179546847939491 
665	 0.179591715335846 
666	 0.179657056927681 
667	 0.179658025503159 
668	 0.179650872945786 
669	 0.179779678583145 
670	 0.179904237389565 
671	 0.179944843053818 
672	 0.179906591773033 
673	 0.179913654923439 
674	 0.180024057626724 
675	 0.180139571428299 
676	 0.180146604776382 
677	 0.180076271295547 
678	 0.180032059550285 
679	 0.180028051137924 
680	 0.180014356970787 
681	 0.179980471730232 
682	 0.179908767342567 
683	 0.179829463362694 
684	 0.179839372634888 
685	 0.179846972227097 
686	 0.179880291223526 
687	 0.179967492818832 
688	 0.180042445659637 
689	 0.180097013711929 
690	 0.180106312036514 
691	 0.180062413215637 
692	 0.180125445127487 
693	 0.180166572332382 
694	 0.180184185504913 
695	 0.180350184440613 
696	 0.180437847971916 
697	 0.180496379733086 
698	 0.180590152740479 
699	 0.180652171373367 
700	 0.180816009640694 
701	 0.180976301431656 
702	 0.18098284304142 
703	 0.181015715003014 
704	 0.181088611483574 
705	 0.181181460618973 
706	 0.181256473064423 
707	 0.181368604302406 
708	 0.181422725319862 
709	 0.181400060653687 
710	 0.181463584303856 
711	 0.181511759757996 
712	 0.181608200073242 
713	 0.181782573461533 
714	 0.181749686598778 
715	 0.181748583912849 
716	 0.18182934820652 
717	 0.181905686855316 
718	 0.181878790259361 
719	 0.181914463639259 
720	 0.182040482759476 
721	 0.18208135664463 
722	 0.182088688015938 
723	 0.182117760181427 
724	 0.182179093360901 
725	 0.182163625955582 
726	 0.182134374976158 
727	 0.182142689824104 
728	 0.182212054729462 
729	 0.182276844978333 
730	 0.182166412472725 
731	 0.181991741061211 
732	 0.182048842310905 
733	 0.18209445476532 
734	 0.182132571935654 
735	 0.182178497314453 
736	 0.182216614484787 
737	 0.182140231132507 
738	 0.181999713182449 
739	 0.181888222694397 
740	 0.181899428367615 
741	 0.181873008608818 
742	 0.181788295507431 
743	 0.181702122092247 
744	 0.181705981492996 
745	 0.181700378656387 
746	 0.181658685207367 
747	 0.181621834635735 
748	 0.181532740592957 
749	 0.181452363729477 
750	 0.181404709815979 
751	 0.181333690881729 
752	 0.181253135204315 
753	 0.181197583675385 
754	 0.181168228387833 
755	 0.181052222847939 
756	 0.180990353226662 
757	 0.180919453501701 
758	 0.180740296840668 
759	 0.18061526119709 
760	 0.180586665868759 
761	 0.18058069050312 
762	 0.180461034178734 
763	 0.180326968431473 
764	 0.180227264761925 
765	 0.180140271782875 
766	 0.179967552423477 
767	 0.179849281907082 
768	 0.17971096932888 
769	 0.17951363325119 
770	 0.179403737187386 
771	 0.179305180907249 
772	 0.179202347993851 
773	 0.179087862372398 
774	 0.178909301757813 
775	 0.178759217262268 
776	 0.178652390837669 
777	 0.178556963801384 
778	 0.178477331995964 
779	 0.17835944890976 
780	 0.178193882107735 
781	 0.178017631173134 
782	 0.177851885557175 
783	 0.177671685814857 
784	 0.177482411265373 
785	 0.177342593669891 
786	 0.177256539463997 
787	 0.177147954702377 
788	 0.176971286535263 
789	 0.176798135042191 
790	 0.176631480455399 
791	 0.176522552967072 
792	 0.176467254757881 
793	 0.176212027668953 
794	 0.175930544734001 
795	 0.175754100084305 
796	 0.175730928778648 
797	 0.17565231025219 
798	 0.175480425357819 
799	 0.17524878680706 
800	 0.175035014748573 
801	 0.174833714962006 
802	 0.174649655818939 
803	 0.17446856200695 
804	 0.174258694052696 
805	 0.174065500497818 
806	 0.173965707421303 
807	 0.173910871148109 
808	 0.173634722828865 
809	 0.173410207033157 
810	 0.173249870538712 
811	 0.173098221421242 
812	 0.172911360859871 
813	 0.172739252448082 
814	 0.172612220048904 
815	 0.172509029507637 
816	 0.172248914837837 
817	 0.17203377187252 
818	 0.171872273087502 
819	 0.171692878007889 
820	 0.171589210629463 
821	 0.171411737799644 
822	 0.171197697520256 
823	 0.17109440267086 
824	 0.170990958809853 
825	 0.170824661850929 
826	 0.170592695474625 
827	 0.170357286930084 
828	 0.17026986181736 
829	 0.170232996344566 
830	 0.170126035809517 
831	 0.169869139790535 
832	 0.169668078422546 
833	 0.169501468539238 
834	 0.169320717453957 
835	 0.169110387563705 
836	 0.168975055217743 
837	 0.168824151158333 
838	 0.168615639209747 
839	 0.16850183904171 
840	 0.168385401368141 
841	 0.168247163295746 
842	 0.168086752295494 
843	 0.167890816926956 
844	 0.167725309729576 
845	 0.167587399482727 
846	 0.167457908391953 
847	 0.1673603951931 
848	 0.167201891541481 
849	 0.167023777961731 
850	 0.166896298527718 
851	 0.166761457920074 
852	 0.166621193289757 
853	 0.166491687297821 
854	 0.166383802890778 
855	 0.166261583566666 
856	 0.166051372885704 
857	 0.165838748216629 
858	 0.165762796998024 
859	 0.165733247995377 
860	 0.165645092725754 
861	 0.165497004985809 
862	 0.165357545018196 
863	 0.165237531065941 
864	 0.165100529789925 
865	 0.164944633841515 
866	 0.164801105856895 
867	 0.164713397622108 
868	 0.164618343114853 
869	 0.16451421380043 
870	 0.164455279707909 
871	 0.164456143975258 
872	 0.16440324485302 
873	 0.16428442299366 
874	 0.16417433321476 
875	 0.163950964808464 
876	 0.16376468539238 
877	 0.163711234927177 
878	 0.163769662380219 
879	 0.163694009184837 
880	 0.163593456149101 
881	 0.163519129157066 
882	 0.163424804806709 
883	 0.163358122110367 
884	 0.163253724575043 
885	 0.16312862932682 
886	 0.163074895739555 
887	 0.162982478737831 
888	 0.162894904613495 
889	 0.162843093276024 
890	 0.162814363837242 
891	 0.162709698081017 
892	 0.162588492035866 
893	 0.162485107779503 
894	 0.162393659353256 
895	 0.162372067570686 
896	 0.162356331944466 
897	 0.162330076098442 
898	 0.162325739860535 
899	 0.162288546562195 
900	 0.162221744656563 
901	 0.16212509572506 
902	 0.16200664639473 
903	 0.161994606256485 
904	 0.161938473582268 
905	 0.16181617975235 
906	 0.161729365587234 
907	 0.16172581911087 
908	 0.161782935261726 
909	 0.16180507838726 
910	 0.161699861288071 
911	 0.161618202924728 
912	 0.161595642566681 
913	 0.161576092243195 
914	 0.161485344171524 
915	 0.161420226097107 
916	 0.161400079727173 
917	 0.161394327878952 
918	 0.161365002393723 
919	 0.161356687545776 
920	 0.16133676469326 
921	 0.161303699016571 
922	 0.161265775561333 
923	 0.161205753684044 
924	 0.161186188459396 
925	 0.161221325397491 
926	 0.161289259791374 
927	 0.161338299512863 
928	 0.161302760243416 
929	 0.161282688379288 
930	 0.161312326788902 
931	 0.161184400320053 
932	 0.161118358373642 
933	 0.16112707555294 
934	 0.161141023039818 
935	 0.161061435937881 
936	 0.16099788248539 
937	 0.160972580313683 
938	 0.160968616604805 
939	 0.160950347781181 
940	 0.160956829786301 
941	 0.161038875579834 
942	 0.161096975207329 
943	 0.160956308245659 
944	 0.160854265093803 
945	 0.160876154899597 
946	 0.160902053117752 
947	 0.160770356655121 
948	 0.160751789808273 
949	 0.160761550068855 
950	 0.160743206739426 
951	 0.160678938031197 
952	 0.160599187016487 
953	 0.160537615418434 
954	 0.160547256469727 
955	 0.160610005259514 
956	 0.160556390881538 
957	 0.16048464179039 
958	 0.160449877381325 
959	 0.160434290766716 
960	 0.160344943404198 
961	 0.160319939255714 
962	 0.160312488675117 
963	 0.160292997956276 
964	 0.160292193293571 
965	 0.160406723618507 
966	 0.160519048571587 
967	 0.160563752055168 
968	 0.160533145070076 
969	 0.160405561327934 
970	 0.160471543669701 
971	 0.160569295287132 
972	 0.160512298345566 
973	 0.160572916269302 
974	 0.160582259297371 
975	 0.160623207688332 
976	 0.160660669207573 
977	 0.160445600748062 
978	 0.160523012280464 
979	 0.160600006580353 
980	 0.160540416836739 
981	 0.16048726439476 
982	 0.160504758358002 
983	 0.16048339009285 
984	 0.160396412014961 
985	 0.160290762782097 
986	 0.160248354077339 
987	 0.160286739468575 
988	 0.160349056124687 
989	 0.160358652472496 
990	 0.16027195751667 
991	 0.160241514444351 
992	 0.160134851932526 
993	 0.160025283694267 
994	 0.160135373473167 
995	 0.160008609294891 
996	 0.159883424639702 
997	 0.159801155328751 
998	 0.159704074263573 
999	 0.159689411520958 
1000	 0.159721523523331 
1001	 0.131349489092827 
1002	 0.131317541003227 
1003	 0.131376132369041 
1004	 0.131391853094101 
1005	 0.131462827324867 
1006	 0.131630212068558 
1007	 0.131675601005554 
1008	 0.131696850061417 
1009	 0.131657764315605 
1010	 0.131482884287834 
1011	 0.131380811333656 
1012	 0.131218031048775 
1013	 0.131196871399879 
1014	 0.131281659007072 
1015	 0.131340771913528 
1016	 0.131493493914604 
1017	 0.131593346595764 
1018	 0.13157245516777 
1019	 0.131516575813293 
1020	 0.131431952118874 
1021	 0.131328880786896 
1022	 0.131300151348114 
1023	 0.131275400519371 
1024	 0.131217405200005 
1025	 0.131165385246277 
1026	 0.131082087755203 
1027	 0.130906000733376 
1028	 0.130834683775902 
1029	 0.130767330527306 
1030	 0.130775302648544 
1031	 0.130892395973206 
1032	 0.130987450480461 
1033	 0.131028935313225 
1034	 0.131050437688828 
1035	 0.130985200405121 
1036	 0.130901753902435 
1037	 0.130788967013359 
1038	 0.130678623914719 
1039	 0.130609288811684 
1040	 0.130563348531723 
1041	 0.130509346723557 
1042	 0.130521386861801 
1043	 0.130473732948303 
1044	 0.130392923951149 
1045	 0.13026075065136 
1046	 0.130243748426437 
1047	 0.130179151892662 
1048	 0.130126222968102 
1049	 0.130118742585182 
1050	 0.130047470331192 
1051	 0.129955068230629 
1052	 0.129881590604782 
1053	 0.129847154021263 
1054	 0.129771560430527 
1055	 0.129652708768845 
1056	 0.129580065608025 
1057	 0.129514008760452 
1058	 0.129432320594788 
1059	 0.129402428865433 
1060	 0.129454419016838 
1061	 0.129454076290131 
1062	 0.129447296261787 
1063	 0.129460290074348 
1064	 0.129355609416962 
1065	 0.129225537180901 
1066	 0.129136756062508 
1067	 0.129062429070473 
1068	 0.129022389650345 
1069	 0.128998696804047 
1070	 0.12903493642807 
1071	 0.129037916660309 
1072	 0.129041194915771 
1073	 0.129026979207993 
1074	 0.128978073596954 
1075	 0.128961727023125 
1076	 0.128978207707405 
1077	 0.128966346383095 
1078	 0.128970563411713 
1079	 0.128987416625023 
1080	 0.128929078578949 
1081	 0.128935799002647 
1082	 0.129029810428619 
1083	 0.128995850682259 
1084	 0.128941610455513 
1085	 0.128971174359322 
1086	 0.128990098834038 
1087	 0.12898775935173 
1088	 0.129033789038658 
1089	 0.129096448421478 
1090	 0.129059642553329 
1091	 0.128974407911301 
1092	 0.128997981548309 
1093	 0.129075676202774 
1094	 0.129103302955627 
1095	 0.129148364067078 
1096	 0.129138424992561 
1097	 0.129097729921341 
1098	 0.129110366106033 
1099	 0.129096642136574 
1100	 0.129121229052544 
1101	 0.12915763258934 
1102	 0.129220634698868 
1103	 0.129231512546539 
1104	 0.129210606217384 
1105	 0.12921005487442 
1106	 0.129164889454842 
1107	 0.129098385572433 
1108	 0.129122376441956 
1109	 0.129089161753654 
1110	 0.129068344831467 
1111	 0.129126951098442 
1112	 0.129161313176155 
1113	 0.129187345504761 
1114	 0.129165813326836 
1115	 0.129068568348885 
1116	 0.128910437226295 
1117	 0.128801599144936 
1118	 0.128691747784615 
1119	 0.128613814711571 
1120	 0.128558129072189 
1121	 0.128546535968781 
1122	 0.128500178456306 
1123	 0.128463014960289 
1124	 0.128428772091866 
1125	 0.12835980951786 
1126	 0.128295600414276 
1127	 0.128187254071236 
1128	 0.128039315342903 
1129	 0.127951070666313 
1130	 0.127902343869209 
1131	 0.127838835120201 
1132	 0.127782747149467 
1133	 0.127690896391869 
1134	 0.127583101391792 
1135	 0.127429872751236 
1136	 0.127307951450348 
1137	 0.127190008759499 
1138	 0.127070918679237 
1139	 0.126979321241379 
1140	 0.126864597201347 
1141	 0.126736879348755 
1142	 0.126628175377846 
1143	 0.126520901918411 
1144	 0.126465350389481 
1145	 0.126427188515663 
1146	 0.126385718584061 
1147	 0.126356899738312 
1148	 0.126230612397194 
1149	 0.126093536615372 
1150	 0.125889867544174 
1151	 0.125770911574364 
1152	 0.125639483332634 
1153	 0.125579729676247 
1154	 0.125571921467781 
1155	 0.125559777021408 
1156	 0.125554978847504 
1157	 0.125527992844582 
1158	 0.125477343797684 
1159	 0.12542162835598 
1160	 0.125380828976631 
1161	 0.125355437397957 
1162	 0.12534099817276 
1163	 0.125346004962921 
1164	 0.125338315963745 
1165	 0.12531341612339 
1166	 0.125305250287056 
1167	 0.125331148505211 
1168	 0.125316217541695 
1169	 0.125278368592262 
1170	 0.125262260437012 
1171	 0.125227972865105 
1172	 0.12521567940712 
1173	 0.125260382890701 
1174	 0.125257298350334 
1175	 0.125239044427872 
1176	 0.125241383910179 
1177	 0.125223502516747 
1178	 0.125222444534302 
1179	 0.125253781676292 
1180	 0.125277370214462 
1181	 0.125281676650047 
1182	 0.125276044011116 
1183	 0.125288233160973 
1184	 0.125319749116898 
1185	 0.125315114855766 
1186	 0.125312015414238 
1187	 0.125303909182549 
1188	 0.125265777111053 
1189	 0.125221520662308 
1190	 0.125244572758675 
1191	 0.125252202153206 
1192	 0.125265970826149 
1193	 0.125271543860435 
1194	 0.12525936961174 
1195	 0.125273153185844 
1196	 0.125265568494797 
1197	 0.12527996301651 
1198	 0.125317960977554 
1199	 0.125286161899567 
1200	 0.125243246555328 
1201	 0.125240728259087 
1202	 0.125214248895645 
1203	 0.125152006745338 
1204	 0.125128239393234 
1205	 0.12512095272541 
1206	 0.125095069408417 
1207	 0.12506739795208 
1208	 0.125064522027969 
1209	 0.125021800398827 
1210	 0.124980226159096 
1211	 0.124976627528667 
1212	 0.124946787953377 
1213	 0.124926164746284 
1214	 0.124936692416668 
1215	 0.124916963279247 
1216	 0.124899052083492 
1217	 0.124881863594055 
1218	 0.124878346920013 
1219	 0.124855801463127 
1220	 0.124810576438904 
1221	 0.124775879085064 
1222	 0.124736420810223 
1223	 0.124713405966759 
1224	 0.124704487621784 
1225	 0.124694794416428 
1226	 0.124713726341724 
1227	 0.124677069485188 
1228	 0.124616198241711 
1229	 0.124580331146717 
1230	 0.124546945095062 
1231	 0.124539524316788 
1232	 0.124554507434368 
1233	 0.124560065567493 
1234	 0.124508783221245 
1235	 0.124424189329147 
1236	 0.124379023909569 
1237	 0.124339185655117 
1238	 0.124293893575668 
1239	 0.124279536306858 
1240	 0.124254390597343 
1241	 0.124207891523838 
1242	 0.124157965183258 
1243	 0.124106533825397 
1244	 0.124074958264828 
1245	 0.124036148190498 
1246	 0.124003782868385 
1247	 0.123993128538132 
1248	 0.123996943235397 
1249	 0.123969741165638 
1250	 0.123949460685253 
1251	 0.123927667737007 
1252	 0.123907901346684 
1253	 0.123909577727318 
1254	 0.123898439109325 
1255	 0.123899765312672 
1256	 0.12391996383667 
1257	 0.123911932110786 
1258	 0.123906329274178 
1259	 0.123892948031425 
1260	 0.123888209462166 
1261	 0.123852044343948 
1262	 0.123777285218239 
1263	 0.123730458319187 
1264	 0.123673170804977 
1265	 0.123646378517151 
1266	 0.123668111860752 
1267	 0.123652882874012 
1268	 0.123614810407162 
1269	 0.123593702912331 
1270	 0.12356773018837 
1271	 0.123533844947815 
1272	 0.123527109622955 
1273	 0.12355937063694 
1274	 0.123546399176121 
1275	 0.123517975211143 
1276	 0.123477406799793 
1277	 0.123404666781425 
1278	 0.123347096145153 
1279	 0.123314380645752 
1280	 0.12327367067337 
1281	 0.123252533376217 
1282	 0.123210303485394 
1283	 0.123141728341579 
1284	 0.123094797134399 
1285	 0.123055920004845 
1286	 0.12301105260849 
1287	 0.122980676591396 
1288	 0.122940301895142 
1289	 0.122903034090996 
1290	 0.122833698987961 
1291	 0.122738666832447 
1292	 0.122652851045132 
1293	 0.122548319399357 
1294	 0.122476927936077 
1295	 0.122464761137962 
1296	 0.122434139251709 
1297	 0.122375652194023 
1298	 0.122317723929882 
1299	 0.122279636561871 
1300	 0.122244261205196 
1301	 0.122231371700764 
1302	 0.12222633510828 
1303	 0.122216686606407 
1304	 0.122183039784431 
1305	 0.122184798121452 
1306	 0.122220732271671 
1307	 0.122238829731941 
1308	 0.122260339558125 
1309	 0.122277423739433 
1310	 0.122266657650471 
1311	 0.122298799455166 
1312	 0.122371338307858 
1313	 0.122408650815487 
1314	 0.122441701591015 
1315	 0.122501343488693 
1316	 0.122552685439587 
1317	 0.122609831392765 
1318	 0.122704163193703 
1319	 0.122757107019424 
1320	 0.122784145176411 
1321	 0.122843191027641 
1322	 0.122928284108639 
1323	 0.122993841767311 
1324	 0.123012408614159 
1325	 0.123001463711262 
1326	 0.123013660311699 
1327	 0.123006239533424 
1328	 0.123012445867062 
1329	 0.123062416911125 
1330	 0.123051188886166 
1331	 0.122999973595142 
1332	 0.122948288917542 
1333	 0.122854650020599 
1334	 0.122805811464787 
1335	 0.122781492769718 
1336	 0.122739590704441 
1337	 0.122739091515541 
1338	 0.122679226100445 
1339	 0.122549720108509 
1340	 0.122461557388306 
1341	 0.122370459139347 
1342	 0.122275315225124 
1343	 0.122218757867813 
1344	 0.122169502079487 
1345	 0.122068628668785 
1346	 0.121958166360855 
1347	 0.121848337352276 
1348	 0.1217345520854 
1349	 0.121630892157555 
1350	 0.121534243226051 
1351	 0.121431596577168 
1352	 0.121329210698605 
1353	 0.121213175356388 
1354	 0.121081560850143 
1355	 0.120972946286201 
1356	 0.120867356657982 
1357	 0.120752744376659 
1358	 0.120670005679131 
1359	 0.120545394718647 
1360	 0.120382659137249 
1361	 0.120230346918106 
1362	 0.120069190859795 
1363	 0.11990287899971 
1364	 0.119715958833694 
1365	 0.119564712047577 
1366	 0.119431376457214 
1367	 0.119291745126247 
1368	 0.119172170758247 
1369	 0.119054310023785 
1370	 0.118904195725918 
1371	 0.118724718689919 
1372	 0.118554674088955 
1373	 0.118401564657688 
1374	 0.118267804384232 
1375	 0.118163704872131 
1376	 0.118061602115631 
1377	 0.117942474782467 
1378	 0.117819555103779 
1379	 0.117681182920933 
1380	 0.117549978196621 
1381	 0.117432534694672 
1382	 0.11727973818779 
1383	 0.117124646902084 
1384	 0.116934299468994 
1385	 0.116731785237789 
1386	 0.116459921002388 
1387	 0.116173103451729 
1388	 0.115809626877308 
1389	 0.115379244089127 
1390	 0.114911109209061 
1391	 0.114405922591686 
1392	 0.113820426166058 
1393	 0.113150127232075 
1394	 0.112463772296906 
1395	 0.111691549420357 
1396	 0.11093981564045 
1397	 0.110132500529289 
1398	 0.109400488436222 
1399	 0.108680821955204 
1400	 0.108006991446018 
1401	 0.107394427061081 
1402	 0.106805413961411 
1403	 0.106214366853237 
1404	 0.10566557943821 
1405	 0.105198308825493 
1406	 0.104773111641407 
1407	 0.104414723813534 
1408	 0.104135170578957 
1409	 0.103912174701691 
1410	 0.103762850165367 
1411	 0.10373117774725 
1412	 0.103767491877079 
1413	 0.103989705443382 
1414	 0.104347690939903 
1415	 0.104815602302551 
1416	 0.105478800833225 
1417	 0.106127366423607 
1418	 0.106865830719471 
1419	 0.107607766985893 
1420	 0.108435027301311 
1421	 0.109198570251465 
1422	 0.110005475580692 
1423	 0.110708810389042 
1424	 0.111358352005482 
1425	 0.111954391002655 
1426	 0.112488955259323 
1427	 0.11297407746315 
1428	 0.113418839871883 
1429	 0.113798908889294 
1430	 0.114108301699162 
1431	 0.114384517073631 
1432	 0.114565432071686 
1433	 0.114773340523243 
1434	 0.114974647760391 
1435	 0.115158684551716 
1436	 0.115299053490162 
1437	 0.115442231297493 
1438	 0.115521907806396 
1439	 0.115544117987156 
1440	 0.1156000867486 
1441	 0.115653730928898 
1442	 0.115686781704426 
1443	 0.115726575255394 
1444	 0.1157341375947 
1445	 0.115706875920296 
1446	 0.115708015859127 
1447	 0.115707635879517 
1448	 0.115707725286484 
1449	 0.115730434656143 
1450	 0.115718871355057 
1451	 0.115675121545792 
1452	 0.115654483437538 
1453	 0.115632422268391 
1454	 0.115615084767342 
1455	 0.115614131093025 
1456	 0.115594312548637 
1457	 0.115561254322529 
1458	 0.115534856915474 
1459	 0.11550223082304 
1460	 0.115477152168751 
1461	 0.115459598600864 
1462	 0.115441039204597 
1463	 0.115419797599316 
1464	 0.115406475961208 
1465	 0.115406773984432 
1466	 0.115387625992298 
1467	 0.115365639328957 
1468	 0.115342922508717 
1469	 0.115308597683907 
1470	 0.115269511938095 
1471	 0.115210331976414 
1472	 0.115185499191284 
1473	 0.115189090371132 
1474	 0.115168519318104 
1475	 0.115168385207653 
1476	 0.115142807364464 
1477	 0.115081384778023 
1478	 0.115033462643623 
1479	 0.115009665489197 
1480	 0.114984542131424 
1481	 0.114966593682766 
1482	 0.11494180560112 
1483	 0.114906758069992 
1484	 0.114874131977558 
1485	 0.114827014505863 
1486	 0.114779449999332 
1487	 0.114725060760975 
1488	 0.114670775830746 
1489	 0.114634945988655 
1490	 0.11459106951952 
1491	 0.114556834101677 
1492	 0.114548020064831 
1493	 0.114514172077179 
1494	 0.114460304379463 
1495	 0.11444229632616 
1496	 0.114439077675343 
1497	 0.114417716860771 
1498	 0.114420153200626 
1499	 0.114394851028919 
1500	 0.114332683384418 
1501	 0.114282190799713 
1502	 0.11423709243536 
1503	 0.11419901996851 
1504	 0.114154361188412 
1505	 0.114108689129353 
1506	 0.114077545702457 
1507	 0.114027962088585 
1508	 0.113956898450851 
1509	 0.113914452493191 
1510	 0.113877989351749 
1511	 0.113834522664547 
1512	 0.113811209797859 
1513	 0.113768585026264 
1514	 0.113713771104813 
1515	 0.113658748567104 
1516	 0.113579623401165 
1517	 0.113529071211815 
1518	 0.113501384854317 
1519	 0.113455377519131 
1520	 0.113415896892548 
1521	 0.113367550075054 
1522	 0.113294459879398 
1523	 0.11323955655098 
1524	 0.113200612366199 
1525	 0.113166525959969 
1526	 0.113131664693356 
1527	 0.113101541996002 
1528	 0.113091975450516 
1529	 0.113056100904942 
1530	 0.113005600869656 
1531	 0.112966120243073 
1532	 0.112908847630024 
1533	 0.112849682569504 
1534	 0.112818188965321 
1535	 0.1127914711833 
1536	 0.112766109406948 
1537	 0.11274515837431 
1538	 0.112717561423779 
1539	 0.112682871520519 
1540	 0.112641222774982 
1541	 0.112599857151508 
1542	 0.112579643726349 
1543	 0.11254870146513 
1544	 0.112466022372246 
1545	 0.112390734255314 
1546	 0.11232004314661 
1547	 0.112238071858883 
1548	 0.112221285700798 
1549	 0.11220995336771 
1550	 0.112151131033897 
1551	 0.112117417156696 
1552	 0.112071789801121 
1553	 0.112012572586536 
1554	 0.11199089884758 
1555	 0.111952543258667 
1556	 0.111910700798035 
1557	 0.111883483827114 
1558	 0.111831948161125 
1559	 0.111785560846329 
1560	 0.111750714480877 
1561	 0.111715324223042 
1562	 0.111681632697582 
1563	 0.111616760492325 
1564	 0.111555621027946 
1565	 0.111516259610653 
1566	 0.111433498561382 
1567	 0.111386194825172 
1568	 0.111355371773243 
1569	 0.111322224140167 
1570	 0.111285522580147 
1571	 0.111294470727444 
1572	 0.111242480576038 
1573	 0.111140109598637 
1574	 0.11108985543251 
1575	 0.111046753823757 
1576	 0.11101158708334 
1577	 0.110986284911633 
1578	 0.110973633825779 
1579	 0.110968492925167 
1580	 0.110952809453011 
1581	 0.110970921814442 
1582	 0.110952034592628 
1583	 0.110893458127975 
1584	 0.110860273241997 
1585	 0.110828973352909 
1586	 0.110786698758602 
1587	 0.11075583845377 
1588	 0.110713317990303 
1589	 0.110638707876205 
1590	 0.110601134598255 
1591	 0.110573679208755 
1592	 0.110549665987492 
1593	 0.110564470291138 
1594	 0.110542818903923 
1595	 0.110497280955315 
1596	 0.11046801507473 
1597	 0.110425718128681 
1598	 0.11038576811552 
1599	 0.110369369387627 
1600	 0.110340349376202 
1601	 0.110297210514545 
1602	 0.110263288021088 
1603	 0.11022824048996 
1604	 0.110183037817478 
1605	 0.110137321054935 
1606	 0.110084116458893 
1607	 0.110005006194115 
1608	 0.109983757138252 
1609	 0.109994493424892 
1610	 0.10997612029314 
1611	 0.10999359190464 
1612	 0.109971307218075 
1613	 0.109893679618835 
1614	 0.109857596457005 
1615	 0.109835058450699 
1616	 0.10981435328722 
1617	 0.109801970422268 
1618	 0.10977952927351 
1619	 0.109757713973522 
1620	 0.109739400446415 
1621	 0.109734006226063 
1622	 0.109707124531269 
1623	 0.109666600823402 
1624	 0.109636880457401 
1625	 0.109573788940907 
1626	 0.109542340040207 
1627	 0.109567627310753 
1628	 0.109538592398167 
1629	 0.109476387500763 
1630	 0.109448947012424 
1631	 0.109423831105232 
1632	 0.109378926455975 
1633	 0.109350807964802 
1634	 0.109314352273941 
1635	 0.109228789806366 
1636	 0.109190821647644 
1637	 0.109184496104717 
1638	 0.109167695045471 
1639	 0.109190784394741 
1640	 0.109154537320137 
1641	 0.109066054224968 
1642	 0.109048560261726 
1643	 0.109027676284313 
1644	 0.109007030725479 
1645	 0.109044954180717 
1646	 0.109022699296474 
1647	 0.108944766223431 
1648	 0.108933091163635 
1649	 0.108952432870865 
1650	 0.108936756849289 
1651	 0.108932055532932 
1652	 0.108904376626015 
1653	 0.108828619122505 
1654	 0.108801640570164 
1655	 0.108813881874084 
1656	 0.108791075646877 
1657	 0.108763843774796 
1658	 0.108721949160099 
1659	 0.108648680150509 
1660	 0.108601294457912 
1661	 0.108562655746937 
1662	 0.108541361987591 
1663	 0.108538247644901 
1664	 0.108514197170734 
1665	 0.108485698699951 
1666	 0.108428649604321 
1667	 0.108402796089649 
1668	 0.108349934220314 
1669	 0.108336627483368 
1670	 0.108339808881283 
1671	 0.108277954161167 
1672	 0.108247712254524 
1673	 0.108233503997326 
1674	 0.108200989663601 
1675	 0.108211040496826 
1676	 0.108209565281868 
1677	 0.10815367102623 
1678	 0.108110129833221 
1679	 0.108096495270729 
1680	 0.108073085546494 
1681	 0.108055919408798 
1682	 0.10803684592247 
1683	 0.107991918921471 
1684	 0.107963055372238 
1685	 0.107978641986847 
1686	 0.108003564178944 
1687	 0.107979349792004 
1688	 0.107922427356243 
1689	 0.107865571975708 
1690	 0.107793867588043 
1691	 0.107745014131069 
1692	 0.107736445963383 
1693	 0.107701398432255 
1694	 0.107661508023739 
1695	 0.107634536921978 
1696	 0.107566960155964 
1697	 0.107506386935711 
1698	 0.107463948428631 
1699	 0.107453271746635 
1700	 0.107477612793446 
1701	 0.107448503375053 
1702	 0.10741064697504 
1703	 0.107353694736958 
1704	 0.107267454266548 
1705	 0.107248581945896 
1706	 0.107245035469532 
1707	 0.107223995029926 
1708	 0.107213072478771 
1709	 0.107198476791382 
1710	 0.107173450291157 
1711	 0.107125170528889 
1712	 0.107071951031685 
1713	 0.10704942047596 
1714	 0.107047609984875 
1715	 0.10704131424427 
1716	 0.107042841613293 
1717	 0.107032299041748 
1718	 0.106983505189419 
1719	 0.106948129832745 
1720	 0.106905028223991 
1721	 0.106860682368279 
1722	 0.10684909671545 
1723	 0.106808498501778 
1724	 0.106784768402576 
1725	 0.10678181797266 
1726	 0.106726661324501 
1727	 0.106704615056515 
1728	 0.106694951653481 
1729	 0.10668233782053 
1730	 0.106688633561134 
1731	 0.106687009334564 
1732	 0.106697246432304 
1733	 0.106670789420605 
1734	 0.106634713709354 
1735	 0.106577679514885 
1736	 0.106468565762043 
1737	 0.106409907341003 
1738	 0.1063217446208 
1739	 0.106270156800747 
1740	 0.106259897351265 
1741	 0.106208384037018 
1742	 0.10617670416832 
1743	 0.106150947511196 
1744	 0.106105729937553 
1745	 0.106086879968643 
1746	 0.106070995330811 
1747	 0.106087513267994 
1748	 0.106120951473713 
1749	 0.1060721129179 
1750	 0.106013536453247 
1751	 0.105957008898258 
1752	 0.105867125093937 
1753	 0.105826005339622 
1754	 0.105827234685421 
1755	 0.105789117515087 
1756	 0.105699464678764 
1757	 0.105633430182934 
1758	 0.105555392801762 
1759	 0.105489701032639 
1760	 0.105497948825359 
1761	 0.105512581765652 
1762	 0.105534590780735 
1763	 0.105506099760532 
1764	 0.105446793138981 
1765	 0.105407141149044 
1766	 0.105325423181057 
1767	 0.10530773550272 
1768	 0.105331942439079 
1769	 0.10532084107399 
1770	 0.10537364333868 
1771	 0.105398632586002 
1772	 0.105330765247345 
1773	 0.105271317064762 
1774	 0.105200231075287 
1775	 0.105126239359379 
1776	 0.105116367340088 
1777	 0.105107389390469 
1778	 0.105079285800457 
1779	 0.104992724955082 
1780	 0.104975111782551 
1781	 0.104984730482101 
1782	 0.104983158409595 
1783	 0.105034999549389 
1784	 0.105012580752373 
1785	 0.104974143207073 
1786	 0.104940317571163 
1787	 0.104860365390778 
1788	 0.104832857847214 
1789	 0.104747839272022 
1790	 0.104661159217358 
1791	 0.104626946151257 
1792	 0.104529350996017 
1793	 0.104487575590611 
1794	 0.104515999555588 
1795	 0.104570992290974 
1796	 0.104612767696381 
1797	 0.10461513698101 
1798	 0.10454111546278 
1799	 0.104402616620064 
1800	 0.104363463819027 
1801	 0.104364134371281 
1802	 0.104346945881844 
1803	 0.104339957237244 
1804	 0.104277245700359 
1805	 0.104214981198311 
1806	 0.10421546548605 
1807	 0.104217305779457 
1808	 0.104165703058243 
1809	 0.104091383516788 
1810	 0.104016490280628 
1811	 0.103915795683861 
1812	 0.103876672685146 
1813	 0.103873237967491 
1814	 0.10388208180666 
1815	 0.103864908218384 
1816	 0.103791058063507 
1817	 0.103758834302425 
1818	 0.103649206459522 
1819	 0.103580921888351 
1820	 0.103589326143265 
1821	 0.103550396859646 
1822	 0.10352897644043 
1823	 0.103493705391884 
1824	 0.103491708636284 
1825	 0.103427819907665 
1826	 0.103321917355061 
1827	 0.103253521025181 
1828	 0.103115871548653 
1829	 0.103026501834393 
1830	 0.102991379797459 
1831	 0.103388607501984 
1832	 0.103434011340141 
1833	 0.103436850011349 
1834	 0.103402502834797 
1835	 0.103370979428291 
1836	 0.103350318968296 
1837	 0.103329710662365 
1838	 0.103293843567371 
1839	 0.103256791830063 
1840	 0.103264294564724 
1841	 0.103247404098511 
1842	 0.103158853948116 
1843	 0.10311459004879 
1844	 0.103131651878357 
1845	 0.103206589818001 
1846	 0.10320145636797 
1847	 0.103233821690083 
1848	 0.103234156966209 
1849	 0.103140883147717 
1850	 0.103090271353722 
1851	 0.103069104254246 
1852	 0.103123985230923 
1853	 0.10315153002739 
1854	 0.103068597614765 
1855	 0.103025570511818 
1856	 0.102979108691216 
1857	 0.102919690310955 
1858	 0.102807089686394 
1859	 0.102815806865692 
1860	 0.102840669453144 
1861	 0.10283986479044 
1862	 0.102834843099117 
1863	 0.102778717875481 
1864	 0.102716751396656 
1865	 0.102680020034313 
1866	 0.102636009454727 
1867	 0.102621965110302 
1868	 0.102577015757561 
1869	 0.102469138801098 
1870	 0.102405495941639 
1871	 0.102414883673191 
1872	 0.102446652948856 
1873	 0.10249113291502 
1874	 0.1025151014328 
1875	 0.102433696389198 
1876	 0.102303057909012 
1877	 0.102209009230137 
1878	 0.102134324610233 
1879	 0.102028854191303 
1880	 0.101886503398418 
1881	 0.101823508739471 
1882	 0.101794108748436 
1883	 0.101628355681896 
1884	 0.101435698568821 
1885	 0.101300172507763 
1886	 0.101167745888233 
1887	 0.101034060120583 
1888	 0.100900828838348 
1889	 0.100832015275955 
1890	 0.100715152919292 
1891	 0.100481763482094 
1892	 0.100290983915329 
1893	 0.1001266092062 
1894	 0.100022464990616 
1895	 0.100001320242882 
1896	 9.98993441462517E-02 
1897	 9.98405143618584E-02 
1898	 9.97081696987152E-02 
1899	 0.099559523165226 
1900	 9.93263721466064E-02 
1901	 0.099248431622982 
1902	 9.90744233131409E-02 
1903	 9.88537073135376E-02 
1904	 9.87573266029358E-02 
1905	 9.86325666308403E-02 
1906	 0.098534382879734 
1907	 9.85865071415901E-02 
1908	 9.86102968454361E-02 
1909	 9.85787883400917E-02 
1910	 9.85213443636894E-02 
1911	 9.84585657715797E-02 
1912	 9.83469784259796E-02 
1913	 9.82846766710281E-02 
1914	 9.82275903224945E-02 
1915	 9.82416644692421E-02 
1916	 9.83466655015945E-02 
1917	 9.83859151601791E-02 
1918	 9.83798801898956E-02 
1919	 0.098413310945034 
1920	 9.83957722783089E-02 
1921	 0.098319336771965 
1922	 9.83031541109085E-02 
1923	 9.83272641897202E-02 
1924	 9.83496382832527E-02 
1925	 9.83388274908066E-02 
1926	 9.83216390013695E-02 
1927	 9.83247235417366E-02 
1928	 9.83452424407005E-02 
1929	 9.83692035079002E-02 
1930	 0.09837606549263 
1931	 9.82605665922165E-02 
1932	 9.81643125414848E-02 
1933	 9.81400609016418E-02 
1934	 9.81557741761208E-02 
1935	 9.81360822916031E-02 
1936	 9.81514453887939E-02 
1937	 9.81476530432701E-02 
1938	 0.098007433116436 
1939	 9.80211198329926E-02 
1940	 9.81864184141159E-02 
1941	 9.81999561190605E-02 
1942	 9.81933400034904E-02 
1943	 0.098194420337677 
1944	 0.098161593079567 
1945	 0.09804617613554 
1946	 9.80052351951599E-02 
1947	 9.80191975831985E-02 
1948	 9.79381576180458E-02 
1949	 9.78714600205421E-02 
1950	 9.78946685791016E-02 
1951	 9.79408398270607E-02 
1952	 9.80084389448166E-02 
1953	 9.80959683656693E-02 
1954	 9.81146395206451E-02 
1955	 9.80587974190712E-02 
1956	 9.80485081672668E-02 
1957	 9.80265438556671E-02 
1958	 9.79635864496231E-02 
1959	 9.79477912187576E-02 
1960	 9.79675725102425E-02 
1961	 9.79756638407707E-02 
1962	 9.79896113276482E-02 
1963	 9.80013683438301E-02 
1964	 9.79909673333168E-02 
1965	 9.80342552065849E-02 
1966	 9.80682373046875E-02 
1967	 9.80479121208191E-02 
1968	 9.80362743139267E-02 
1969	 9.79961603879929E-02 
1970	 9.79796573519707E-02 
1971	 9.79544743895531E-02 
1972	 9.79612097144127E-02 
1973	 9.80034321546555E-02 
1974	 9.80478376150131E-02 
1975	 9.80475172400475E-02 
1976	 9.80851203203201E-02 
1977	 0.098125234246254 
1978	 9.80618298053741E-02 
1979	 9.79610532522202E-02 
1980	 9.79644134640694E-02 
1981	 0.097985103726387 
1982	 9.80345830321312E-02 
1983	 9.80664789676666E-02 
1984	 9.81567278504372E-02 
1985	 9.81866344809532E-02 
1986	 9.81520190834999E-02 
1987	 9.81811732053757E-02 
1988	 9.81835946440697E-02 
1989	 9.81993675231934E-02 
1990	 9.82348844408989E-02 
1991	 9.82495471835136E-02 
1992	 9.82960686087608E-02 
1993	 9.83603224158287E-02 
1994	 9.84201729297638E-02 
1995	 9.85131785273552E-02 
1996	 9.85388830304146E-02 
1997	 9.85056757926941E-02 
1998	 9.85392853617668E-02 
1999	 0.09856116771698 
2000	 9.85923931002617E-02 
2001	 9.86962839961052E-02 
2002	 9.87241566181183E-02 
2003	 0.098761260509491 
2004	 9.87919718027115E-02 
2005	 9.87921580672264E-02 
2006	 9.88368839025497E-02 
2007	 9.88706424832344E-02 
2008	 9.88737791776657E-02 
2009	 9.89137068390846E-02 
2010	 9.89977791905403E-02 
2011	 9.90621000528336E-02 
2012	 9.91585552692413E-02 
2013	 9.91584733128548E-02 
2014	 9.91753488779068E-02 
2015	 9.91884544491768E-02 
2016	 9.91989821195602E-02 
2017	 9.92556512355804E-02 
2018	 0.099303312599659 
2019	 0.099351592361927 
2020	 9.93855074048042E-02 
2021	 9.93936136364937E-02 
2022	 0.099413275718689 
2023	 9.93999987840652E-02 
2024	 9.94599759578705E-02 
2025	 9.95918959379196E-02 
2026	 9.96560379862785E-02 
2027	 9.97504144906998E-02 
2028	 0.099806547164917 
2029	 9.97658148407936E-02 
2030	 9.97220650315285E-02 
2031	 9.97491925954819E-02 
2032	 9.98605191707611E-02 
2033	 9.99714508652687E-02 
2034	 0.100042253732681 
2035	 0.100092835724354 
2036	 0.100081443786621 
2037	 0.100095629692078 
2038	 0.100132472813129 
2039	 0.100155048072338 
2040	 0.100179649889469 
2041	 0.100169897079468 
2042	 0.100120902061462 
2043	 0.100049160420895 
2044	 0.100093565881252 
2045	 0.100175961852074 
2046	 0.100254252552986 
2047	 0.100328080356121 
2048	 0.100368730723858 
2049	 0.100310280919075 
2050	 0.100333958864212 
2051	 0.100433968007565 
2052	 0.100472703576088 
2053	 0.100464515388012 
2054	 0.100484780967236 
2055	 0.10050306469202 
2056	 0.10052066296339 
2057	 0.100523486733437 
2058	 0.10060291737318 
2059	 0.100696571171284 
2060	 0.100674644112587 
2061	 0.100542008876801 
2062	 0.100530326366425 
2063	 0.10060578584671 
2064	 0.100598111748695 
2065	 0.100600324571133 
2066	 0.100712552666664 
2067	 0.10070887953043 
2068	 0.100532121956348 
2069	 0.100503072142601 
2070	 0.100548110902309 
2071	 0.100564770400524 
2072	 0.100588761270046 
2073	 0.100663721561432 
2074	 0.100731216371059 
2075	 0.100715979933739 
2076	 0.100679740309715 
2077	 0.100725829601288 
2078	 0.100747808814049 
2079	 0.100778564810753 
2080	 0.100781515240669 
2081	 0.100769713521004 
2082	 0.100753039121628 
2083	 0.100699000060558 
2084	 0.100696712732315 
2085	 0.100801661610603 
2086	 0.100749045610428 
2087	 0.100598357617855 
2088	 0.100502669811249 
2089	 0.100308082997799 
2090	 0.100175186991692 
2091	 0.100198291242123 
2092	 0.100209392607212 
2093	 0.100235693156719 
2094	 0.100252091884613 
2095	 0.10014758259058 
2096	 0.100065536797047 
2097	 0.100018315017223 
2098	 9.99481156468391E-02 
2099	 9.98746976256371E-02 
2100	 0.099830336868763 
2101	 9.98054146766663E-02 
2102	 9.97760891914368E-02 
2103	 9.97598096728325E-02 
2104	 9.98395830392838E-02 
2105	 9.98255237936974E-02 
2106	 9.97744798660278E-02 
2107	 9.95931029319763E-02 
2108	 9.95882451534271E-02 
2109	 9.95422601699829E-02 
2110	 0.099414050579071 
2111	 9.94075164198875E-02 
2112	 9.93036404252052E-02 
2113	 9.92782637476921E-02 
2114	 9.93007272481918E-02 
2115	 9.94493365287781E-02 
2116	 9.94918122887611E-02 
2117	 9.95538830757141E-02 
2118	 0.099545381963253 
2119	 9.94449928402901E-02 
2120	 9.94183719158173E-02 
2121	 9.93814244866371E-02 
2122	 9.93394404649735E-02 
2123	 9.93363037705421E-02 
2124	 9.93446260690689E-02 
2125	 9.93528291583061E-02 
2126	 0.099325031042099 
2127	 9.94031801819801E-02 
2128	 9.94179099798203E-02 
2129	 9.93633568286896E-02 
2130	 9.93935018777847E-02 
2131	 9.94026586413383E-02 
2132	 9.93505716323853E-02 
2133	 9.93032306432724E-02 
2134	 9.92460623383522E-02 
2135	 9.92097482085228E-02 
2136	 9.91548672318459E-02 
2137	 0.099108062684536 
2138	 9.91008281707764E-02 
2139	 9.90754067897797E-02 
2140	 9.90704670548439E-02 
2141	 9.90071371197701E-02 
2142	 9.88583415746689E-02 
2143	 0.098783865571022 
2144	 9.87381413578987E-02 
2145	 9.86438766121864E-02 
2146	 9.84978675842285E-02 
2147	 9.83974188566208E-02 
2148	 9.82631966471672E-02 
2149	 9.79712307453156E-02 
2150	 0.097695603966713 
2151	 9.75797474384308E-02 
2152	 9.73867997527123E-02 
2153	 9.71075147390366E-02 
2154	 9.68899577856064E-02 
2155	 9.67743769288063E-02 
2156	 9.65255200862885E-02 
2157	 9.62407290935516E-02 
2158	 0.095956414937973 
2159	 9.55347269773483E-02 
2160	 9.52204391360283E-02 
2161	 9.50484126806259E-02 
2162	 9.46899577975273E-02 
2163	 9.42587405443192E-02 
2164	 9.38782766461372E-02 
2165	 9.33749228715897E-02 
2166	 9.28281396627426E-02 
2167	 9.23773646354675E-02 
2168	 9.19734314084053E-02 
2169	 9.15044769644737E-02 
2170	 9.09698680043221E-02 
2171	 9.04284194111824E-02 
2172	 0.089864507317543 
2173	 8.92736315727234E-02 
2174	 8.86306762695313E-02 
2175	 8.80236178636551E-02 
2176	 0.087416872382164 
2177	 8.67877602577209E-02 
2178	 8.61942768096924E-02 
2179	 8.55276137590408E-02 
2180	 8.47692713141441E-02 
2181	 8.40725004673004E-02 
2182	 8.34083333611488E-02 
2183	 8.26637148857117E-02 
2184	 8.18649381399155E-02 
2185	 8.11236873269081E-02 
2186	 8.03560316562653E-02 
2187	 7.95438587665558E-02 
2188	 7.88495466113091E-02 
2189	 7.83578008413315E-02 
2190	 7.78851732611656E-02 
2191	 7.73470625281334E-02 
2192	 7.68957585096359E-02 
2193	 7.64209181070328E-02 
2194	 7.59020447731018E-02 
2195	 7.55974724888802E-02 
2196	 0.075332447886467 
2197	 7.51601085066795E-02 
2198	 7.50234797596931E-02 
2199	 7.49810487031937E-02 
2200	 7.49510675668716E-02 
2201	 0.074937529861927 
2202	 7.50180259346962E-02 
2203	 7.51838162541389E-02 
2204	 7.53497555851936E-02 
2205	 7.55653381347656E-02 
2206	 0.075854018330574 
2207	 7.61905312538147E-02 
2208	 7.65592157840729E-02 
2209	 7.70388022065163E-02 
2210	 0.07745111733675 
2211	 7.78289288282394E-02 
2212	 7.82326981425285E-02 
2213	 7.86638706922531E-02 
2214	 7.91875645518303E-02 
2215	 7.96777680516243E-02 
2216	 8.01384523510933E-02 
2217	 8.05925875902176E-02 
2218	 8.09508562088013E-02 
2219	 8.13728421926498E-02 
2220	 8.19007158279419E-02 
2221	 8.23899433016777E-02 
2222	 8.29004421830177E-02 
2223	 8.33129361271858E-02 
2224	 8.36671516299248E-02 
2225	 8.40181112289429E-02 
2226	 8.42827335000038E-02 
2227	 8.45851749181747E-02 
2228	 8.49612876772881E-02 
2229	 8.52376073598862E-02 
2230	 0.085454136133194 
2231	 8.56189876794815E-02 
2232	 0.08566565066576 
2233	 8.58401879668236E-02 
2234	 8.60849171876907E-02 
2235	 0.08624517172575 
2236	 8.63767266273499E-02 
2237	 8.65395441651344E-02 
2238	 8.66155028343201E-02 
2239	 8.68476927280426E-02 
2240	 8.69385823607445E-02 
2241	 8.69453623890877E-02 
2242	 0.086949922144413 
2243	 8.67925882339478E-02 
2244	 8.67605060338974E-02 
2245	 8.70040208101273E-02 
2246	 8.70280563831329E-02 
2247	 8.69287624955177E-02 
2248	 8.71016085147858E-02 
2249	 8.72558653354645E-02 
2250	 8.73948261141777E-02 
2251	 0.087650828063488 
2252	 8.78346189856529E-02 
2253	 8.78881067037582E-02 
2254	 8.80835130810738E-02 
2255	 8.84362682700157E-02 
2256	 8.86072069406509E-02 
2257	 8.86860564351082E-02 
2258	 0.088822178542614 
2259	 8.89080539345741E-02 
2260	 8.90112146735191E-02 
2261	 8.91942828893662E-02 
2262	 8.93359780311584E-02 
2263	 8.94011706113815E-02 
2264	 8.95178020000458E-02 
2265	 8.96074399352074E-02 
2266	 8.97825658321381E-02 
2267	 9.01493057608604E-02 
2268	 9.02466401457787E-02 
2269	 9.02901217341423E-02 
2270	 9.03076529502869E-02 
2271	 9.00768414139748E-02 
2272	 8.99424180388451E-02 
2273	 9.00895893573761E-02 
2274	 9.01696234941483E-02 
2275	 9.02328789234161E-02 
2276	 9.02321711182594E-02 
2277	 9.01756808161736E-02 
2278	 9.01206284761429E-02 
2279	 9.01338681578636E-02 
2280	 9.02317464351654E-02 
2281	 9.01880115270615E-02 
2282	 9.00950357317925E-02 
2283	 9.01346430182457E-02 
2284	 0.090105913579464 
2285	 9.00339931249619E-02 
2286	 8.99216011166573E-02 
2287	 8.97301360964775E-02 
2288	 8.96229892969131E-02 
2289	 8.94097611308098E-02 
2290	 8.92462953925133E-02 
2291	 8.92242714762688E-02 
2292	 8.93256664276123E-02 
2293	 8.91454666852951E-02 
2294	 8.89553800225258E-02 
2295	 8.88655781745911E-02 
2296	 8.85904431343079E-02 
2297	 8.84190797805786E-02 
2298	 8.85425060987473E-02 
2299	 8.83787721395493E-02 
2300	 8.78585427999496E-02 
2301	 8.76510515809059E-02 
2302	 8.75879153609276E-02 
2303	 0.087479755282402 
2304	 8.75411406159401E-02 
2305	 8.74361470341682E-02 
2306	 0.087215356528759 
2307	 8.70027020573616E-02 
2308	 8.66963490843773E-02 
2309	 8.64569246768951E-02 
2310	 8.62435102462769E-02 
2311	 8.59744176268578E-02 
2312	 8.57254266738892E-02 
2313	 8.54658037424088E-02 
2314	 8.51608738303185E-02 
2315	 0.084845706820488 
2316	 0.084501288831234 
2317	 8.41967761516571E-02 
2318	 8.39269459247589E-02 
2319	 8.37128162384033E-02 
2320	 8.34957584738731E-02 
2321	 8.32270681858063E-02 
2322	 8.27800929546356E-02 
2323	 8.24703276157379E-02 
2324	 8.22710916399956E-02 
2325	 8.18402990698814E-02 
2326	 8.14863741397858E-02 
2327	 8.12791660428047E-02 
2328	 0.081041693687439 
2329	 8.08944329619408E-02 
2330	 8.08793529868126E-02 
2331	 8.07124674320221E-02 
2332	 8.04724469780922E-02 
2333	 8.02987813949585E-02 
2334	 0.079948790371418 
2335	 7.96561613678932E-02 
2336	 7.94474333524704E-02 
2337	 7.91307911276817E-02 
2338	 7.89875835180283E-02 
2339	 7.88040086627007E-02 
2340	 7.85505771636963E-02 
2341	 7.84163773059845E-02 
2342	 7.81996995210648E-02 
2343	 7.81162530183792E-02 
2344	 7.80584588646889E-02 
2345	 7.78467059135437E-02 
2346	 0.077803298830986 
2347	 7.78120383620262E-02 
2348	 7.76855573058128E-02 
2349	 7.76793360710144E-02 
2350	 7.77955427765846E-02 
2351	 7.80231580138206E-02 
2352	 7.81106576323509E-02 
2353	 0.078257218003273 
2354	 7.84565359354019E-02 
2355	 7.86138921976089E-02 
2356	 7.87466913461685E-02 
2357	 7.90123119950294E-02 
2358	 7.90999606251717E-02 
2359	 7.89094418287277E-02 
2360	 7.89102390408516E-02 
2361	 7.90178403258324E-02 
2362	 7.91445076465607E-02 
2363	 7.93692544102669E-02 
2364	 7.95020908117294E-02 
2365	 7.96044170856476E-02 
2366	 7.96328186988831E-02 
2367	 0.079485721886158 
2368	 7.95774310827255E-02 
2369	 7.98702165484428E-02 
2370	 7.99179896712303E-02 
2371	 7.99223110079765E-02 
2372	 8.00100937485695E-02 
2373	 8.00100639462471E-02 
2374	 7.99534320831299E-02 
2375	 8.00023749470711E-02 
2376	 8.00008550286293E-02 
2377	 7.97585546970367E-02 
2378	 7.96502009034157E-02 
2379	 7.96625688672066E-02 
2380	 7.97403529286385E-02 
2381	 7.99687132239342E-02 
2382	 7.99381360411644E-02 
2383	 7.98940062522888E-02 
2384	 7.97448679804802E-02 
2385	 7.90705233812332E-02 
2386	 7.90277570486069E-02 
2387	 0.079582504928112 
2388	 7.95741677284241E-02 
2389	 7.95406252145767E-02 
2390	 7.94768556952477E-02 
2391	 7.87975788116455E-02 
2392	 7.87370726466179E-02 
2393	 7.94679373502731E-02 
2394	 7.94706791639328E-02 
2395	 0.079040989279747 
2396	 7.91206508874893E-02 
2397	 7.91500732302666E-02 
2398	 0.079104021191597 
2399	 7.96387791633606E-02 
2400	 7.96719193458557E-02 
2401	 7.91764780879021E-02 
2402	 7.87671804428101E-02 
2403	 7.80754610896111E-02 
2404	 7.78556242585182E-02 
2405	 7.77457132935524E-02 
2406	 7.76320472359657E-02 
2407	 0.07809679210186 
2408	 7.80625119805336E-02 
2409	 7.75183662772179E-02 
2410	 7.73584619164467E-02 
2411	 0.077252134680748 
2412	 7.71690979599953E-02 
2413	 7.74262696504593E-02 
2414	 0.077244944870472 
2415	 7.66931772232056E-02 
2416	 7.64205008745193E-02 
2417	 7.60203152894974E-02 
2418	 7.58521854877472E-02 
2419	 7.59953111410141E-02 
2420	 7.60019868612289E-02 
2421	 7.60153159499168E-02 
2422	 7.59014636278152E-02 
2423	 7.59296864271164E-02 
2424	 7.56009072065353E-02 
2425	 7.48347714543343E-02 
2426	 7.44559764862061E-02 
2427	 7.39909783005714E-02 
2428	 0.07366893440485 
2429	 0.073542483150959 
2430	 0.073563739657402 
2431	 7.38694742321968E-02 
2432	 7.37495273351669E-02 
2433	 0.073712944984436 
2434	 7.34231472015381E-02 
2435	 7.24204033613205E-02 
2436	 0.072169654071331 
2437	 7.23205357789993E-02 
2438	 7.22953006625175E-02 
2439	 7.24840387701988E-02 
2440	 0.072601243853569 
2441	 0.072582796216011 
2442	 0.0726313367486 
2443	 7.27695450186729E-02 
2444	 7.29715377092361E-02 
2445	 7.32357278466225E-02 
2446	 0.073372557759285 
2447	 7.37295746803284E-02 
2448	 7.35879838466644E-02 
2449	 7.28929489850998E-02 
2450	 7.27087929844856E-02 
2451	 7.25323408842087E-02 
2452	 7.24258869886398E-02 
2453	 0.072518028318882 
2454	 7.28628113865852E-02 
2455	 7.30131790041924E-02 
2456	 7.29492828249931E-02 
2457	 7.34204724431038E-02 
2458	 7.32872858643532E-02 
2459	 7.26143047213554E-02 
2460	 7.27105438709259E-02 
2461	 7.31614008545876E-02 
2462	 7.32505321502686E-02 
2463	 7.32481777667999E-02 
2464	 7.34158083796501E-02 
2465	 0.073275662958622 
2466	 7.29680508375168E-02 
2467	 0.073119193315506 
2468	 7.30182081460953E-02 
2469	 7.32563808560371E-02 
2470	 7.49751254916191E-02 
2471	 7.53680020570755E-02 
2472	 7.44812786579132E-02 
2473	 0.074420839548111 
2474	 7.41815567016602E-02 
2475	 7.38542973995209E-02 
2476	 7.42382258176804E-02 
2477	 7.42163881659508E-02 
2478	 0.073320560157299 
2479	 7.30115473270416E-02 
2480	 7.31693804264069E-02 
2481	 7.31622204184532E-02 
2482	 7.29992091655731E-02 
2483	 7.32911303639412E-02 
2484	 7.38643035292625E-02 
2485	 0.074425995349884 
2486	 7.58865475654602E-02 
2487	 7.61059895157814E-02 
2488	 7.52623081207275E-02 
2489	 7.51588344573975E-02 
2490	 7.46563374996185E-02 
2491	 7.45088458061218E-02 
2492	 0.075404942035675 
2493	 7.51540064811707E-02 
2494	 7.40996971726418E-02 
2495	 7.33646973967552E-02 
2496	 7.18184038996696E-02 
2497	 7.18059167265892E-02 
2498	 7.28749260306358E-02 
2499	 7.33043253421783E-02 
2500	 7.45680183172226E-02 
