
Text conversion of header file \A_MEDIDAS\PROJETOS\BRASIL\BLOCO GAVIAO\JACOBINA\CANIF27\sco\CANIF27_004.62_00000.asd.ref
 -------------------------------------------------------------
Intemperizada                                                                                                                                               
The instrument number was  16586/1
New ASD spectrum file: Program version = 6.00 file version = 1.00
Spectrum saved: 10/16/2018 at 09:56:01
VNIR integration time : 34
VNIR channel 1 wavelength = 350 wavelength step = 1
There were 50 samples per data value
xmin = 350 xmax= 2500
ymin= 0 ymax= 1.25
The instrument digitizes spectral values to 16 bits
SWIR1 gain was 214 offset was 2097
SWIR2 gain was 513 offset was 2267
Join between VNIR and SWIR1 was 1000 nm
Join between SWIR1 and SWIR2 was 1830 nm
Absolute Reflectance is Enabled
The Absolute Reflectance File is abs165861.ref
VNIR dark signal subtracted
50 dark measurements taken Tue Oct 16 09:52:54 2018
DCC value was 0
Data is compared to a white reference:
60 white reference measurements taken Tue Oct 16 09:53:02 2018
There was no foreoptic attached
Spectrum file is reflectance data
GPS-Latitude is S0
GPS-Longitude is E0
GPS-Altitude is 0
GPS-UTC is Wed Dec 31 17:00:00 1969

Smart Detector
Serial#  0
Signal (A)  0.000E00
Dark (A)  0.000E00
Ref (A)  0.000E00
Status  0 - Uninitialized
Gain  E-4
Averaging  0
Temp (C)  0.0
Humid (%)  0.0

Reflectance Absolute
Wavelength	CANIF27_4.62_00000.asd.ref
350	 0.11472000181675 
351	 0.116776823997498 
352	 0.116749607026577 
353	 0.118242867290974 
354	 0.121295288205147 
355	 0.113389067351818 
356	 0.120673708617687 
357	 0.128065764904022 
358	 0.117863945662975 
359	 0.119362913072109 
360	 0.123491212725639 
361	 0.124984748661518 
362	 0.122773930430412 
363	 0.116288639605045 
364	 0.115653425455093 
365	 0.122683703899384 
366	 0.12686887383461 
367	 0.127006873488426 
368	 0.124698802828789 
369	 0.122717417776585 
370	 0.124712392687798 
371	 0.125114738941193 
372	 0.124699473381042 
373	 0.126300916075706 
374	 0.125188335776329 
375	 0.12637759745121 
376	 0.129745692014694 
377	 0.129574134945869 
378	 0.131102979183197 
379	 0.132069513201714 
380	 0.130928933620453 
381	 0.130606964230537 
382	 0.132245779037476 
383	 0.133679121732712 
384	 0.132945612072945 
385	 0.136510774493217 
386	 0.138588979840279 
387	 0.138099581003189 
388	 0.138591736555099 
389	 0.139756813645363 
390	 0.140713408589363 
391	 0.141092121601105 
392	 0.141722306609154 
393	 0.143156513571739 
394	 0.144039005041122 
395	 0.143422022461891 
396	 0.145243167877197 
397	 0.146916642785072 
398	 0.147865504026413 
399	 0.149187013506889 
400	 0.149794414639473 
401	 0.150442585349083 
402	 0.151363551616669 
403	 0.15141624212265 
404	 0.151476576924324 
405	 0.152303397655487 
406	 0.154012188315392 
407	 0.154483437538147 
408	 0.155139461159706 
409	 0.156230881810188 
410	 0.157116949558258 
411	 0.157367542386055 
412	 0.157746076583862 
413	 0.1590765863657 
414	 0.162224426865578 
415	 0.162165805697441 
416	 0.161325141787529 
417	 0.162745356559753 
418	 0.163702458143234 
419	 0.164557591080666 
420	 0.165196821093559 
421	 0.165357351303101 
422	 0.166504487395287 
423	 0.16766220331192 
424	 0.168085217475891 
425	 0.167718306183815 
426	 0.169094383716583 
427	 0.170721650123596 
428	 0.170932471752167 
429	 0.171447113156319 
430	 0.171835541725159 
431	 0.172198086977005 
432	 0.17289887368679 
433	 0.173316687345505 
434	 0.174226522445679 
435	 0.175698459148407 
436	 0.17656883597374 
437	 0.176953628659248 
438	 0.17763377726078 
439	 0.179217770695686 
440	 0.181161195039749 
441	 0.182281762361526 
442	 0.182827562093735 
443	 0.183881849050522 
444	 0.184784337878227 
445	 0.185635611414909 
446	 0.186549946665764 
447	 0.187520027160645 
448	 0.18835574388504 
449	 0.189190149307251 
450	 0.190119296312332 
451	 0.190683797001839 
452	 0.191203832626343 
453	 0.191816836595535 
454	 0.192502841353416 
455	 0.19336923956871 
456	 0.194005519151688 
457	 0.194369345903397 
458	 0.19525308907032 
459	 0.195995554327965 
460	 0.196594148874283 
461	 0.197243735194206 
462	 0.198010370135307 
463	 0.198626145720482 
464	 0.199132204055786 
465	 0.199825659394264 
466	 0.200387835502625 
467	 0.200816735625267 
468	 0.201254650950432 
469	 0.202065512537956 
470	 0.202862709760666 
471	 0.203540444374084 
472	 0.204135850071907 
473	 0.204780280590057 
474	 0.205508023500443 
475	 0.2062828540802 
476	 0.207004219293594 
477	 0.207729294896126 
478	 0.208508968353271 
479	 0.209308460354805 
480	 0.209815636277199 
481	 0.210649222135544 
482	 0.211663812398911 
483	 0.212398648262024 
484	 0.213207975029945 
485	 0.214005917310715 
486	 0.214712515473366 
487	 0.215306743979454 
488	 0.216174870729446 
489	 0.216946393251419 
490	 0.217329502105713 
491	 0.218003302812576 
492	 0.218574434518814 
493	 0.218958854675293 
494	 0.219300597906113 
495	 0.21982316672802 
496	 0.220419347286224 
497	 0.221064418554306 
498	 0.221968337893486 
499	 0.222676262259483 
500	 0.223307609558105 
501	 0.224104285240173 
502	 0.224994465708733 
503	 0.225864872336388 
504	 0.22664712369442 
505	 0.227326631546021 
506	 0.22802846133709 
507	 0.228817999362946 
508	 0.229617714881897 
509	 0.230041027069092 
510	 0.230663746595383 
511	 0.231368377804756 
512	 0.231866776943207 
513	 0.232477128505707 
514	 0.233134552836418 
515	 0.233736962080002 
516	 0.234178394079208 
517	 0.234633475542068 
518	 0.235090434551239 
519	 0.235537260770798 
520	 0.236078411340714 
521	 0.236566215753555 
522	 0.236966609954834 
523	 0.237320080399513 
524	 0.237762734293938 
525	 0.23813608288765 
526	 0.238404378294945 
527	 0.238720491528511 
528	 0.23905710875988 
529	 0.239357337355614 
530	 0.239617586135864 
531	 0.240063264966011 
532	 0.24039688706398 
533	 0.240615651011467 
534	 0.240909367799759 
535	 0.241325661540031 
536	 0.241752803325653 
537	 0.242093071341515 
538	 0.242297187447548 
539	 0.242635428905487 
540	 0.243058040738106 
541	 0.243434697389603 
542	 0.243789091706276 
543	 0.244161516427994 
544	 0.244561463594437 
545	 0.244967922568321 
546	 0.245301783084869 
547	 0.245662584900856 
548	 0.246074989438057 
549	 0.24632740020752 
550	 0.246557593345642 
551	 0.246821418404579 
552	 0.247134312987328 
553	 0.247470632195473 
554	 0.247750490903854 
555	 0.247933924198151 
556	 0.248031124472618 
557	 0.248185619711876 
558	 0.248391255736351 
559	 0.24862976372242 
560	 0.24896277487278 
561	 0.249336436390877 
562	 0.249633833765984 
563	 0.249757051467896 
564	 0.250015109777451 
565	 0.250260323286057 
566	 0.250411719083786 
567	 0.250546514987946 
568	 0.250657230615616 
569	 0.250662744045258 
570	 0.25052073597908 
571	 0.250380307435989 
572	 0.250340074300766 
573	 0.250434070825577 
574	 0.250641137361526 
575	 0.250928044319153 
576	 0.251209676265717 
577	 0.25143301486969 
578	 0.251616507768631 
579	 0.251764982938766 
580	 0.251882940530777 
581	 0.251973211765289 
582	 0.252031594514847 
583	 0.252069890499115 
584	 0.252078741788864 
585	 0.252026170492172 
586	 0.251801669597626 
587	 0.251571953296661 
588	 0.251514941453934 
589	 0.251748025417328 
590	 0.251962572336197 
591	 0.252027601003647 
592	 0.251917093992233 
593	 0.251693218946457 
594	 0.251520872116089 
595	 0.251490384340286 
596	 0.251594245433807 
597	 0.251479178667068 
598	 0.25123918056488 
599	 0.251003175973892 
600	 0.250686198472977 
601	 0.250398725271225 
602	 0.25016775727272 
603	 0.249966651201248 
604	 0.249737560749054 
605	 0.249579727649689 
606	 0.249507427215576 
607	 0.249407842755318 
608	 0.249252021312714 
609	 0.249020487070084 
610	 0.248743250966072 
611	 0.248585805296898 
612	 0.248369112610817 
613	 0.248080492019653 
614	 0.247815132141113 
615	 0.247633501887321 
616	 0.247497916221619 
617	 0.247340083122253 
618	 0.24706406891346 
619	 0.246821090579033 
620	 0.246612429618835 
621	 0.246408358216286 
622	 0.246235802769661 
623	 0.246069207787514 
624	 0.245865494012833 
625	 0.245590806007385 
626	 0.245420083403587 
627	 0.245224177837372 
628	 0.244955167174339 
629	 0.244783625006676 
630	 0.24456487596035 
631	 0.244320243597031 
632	 0.244105130434036 
633	 0.243894621729851 
634	 0.243671670556068 
635	 0.243439376354218 
636	 0.243219003081322 
637	 0.243065685033798 
638	 0.242845684289932 
639	 0.242527976632118 
640	 0.242327749729156 
641	 0.242084220051765 
642	 0.24185748398304 
643	 0.241717115044594 
644	 0.241441905498505 
645	 0.241151764988899 
646	 0.240910112857819 
647	 0.240717187523842 
648	 0.240508899092674 
649	 0.240262433886528 
650	 0.239996314048767 
651	 0.239792674779892 
652	 0.239588096737862 
653	 0.239353165030479 
654	 0.239093333482742 
655	 0.2389245480299 
656	 0.238705113530159 
657	 0.238433569669724 
658	 0.238221541047096 
659	 0.238000750541687 
660	 0.237776860594749 
661	 0.237561404705048 
662	 0.237358763813972 
663	 0.237140581011772 
664	 0.236914485692978 
665	 0.236704364418983 
666	 0.236549854278564 
667	 0.236358761787415 
668	 0.236115291714668 
669	 0.235874816775322 
670	 0.235769182443619 
671	 0.235592320561409 
672	 0.235290557146072 
673	 0.235149577260017 
674	 0.234992757439613 
675	 0.23480124771595 
676	 0.234609976410866 
677	 0.234487101435661 
678	 0.234300538897514 
679	 0.23406682908535 
680	 0.233893290162086 
681	 0.233706668019295 
682	 0.233567163348198 
683	 0.233451545238495 
684	 0.233194530010223 
685	 0.23308739066124 
686	 0.232984751462936 
687	 0.232746109366417 
688	 0.232628554105759 
689	 0.232550024986267 
690	 0.232437714934349 
691	 0.232251659035683 
692	 0.23214428126812 
693	 0.232076346874237 
694	 0.231981739401817 
695	 0.231792971491814 
696	 0.231673538684845 
697	 0.231637626886368 
698	 0.231623604893684 
699	 0.231465369462967 
700	 0.231324717402458 
701	 0.23126283288002 
702	 0.231269061565399 
703	 0.231200963258743 
704	 0.231143951416016 
705	 0.231104597449303 
706	 0.231016919016838 
707	 0.23101232945919 
708	 0.230979889631271 
709	 0.230883419513702 
710	 0.230894401669502 
711	 0.230965197086334 
712	 0.230995580554008 
713	 0.230925008654594 
714	 0.230910196900368 
715	 0.230895340442657 
716	 0.230884417891502 
717	 0.230920314788818 
718	 0.231036335229874 
719	 0.231110587716103 
720	 0.231119051575661 
721	 0.231176480650902 
722	 0.231203481554985 
723	 0.231289401650429 
724	 0.231445133686066 
725	 0.231382429599762 
726	 0.23140561580658 
727	 0.231557056307793 
728	 0.231742158532143 
729	 0.231755062937737 
730	 0.231812015175819 
731	 0.231946378946304 
732	 0.232037842273712 
733	 0.232139989733696 
734	 0.232293620705605 
735	 0.232474192976952 
736	 0.23256416618824 
737	 0.232770308852196 
738	 0.232975780963898 
739	 0.233061939477921 
740	 0.233139529824257 
741	 0.233265489339828 
742	 0.233453691005707 
743	 0.233679577708244 
744	 0.233867198228836 
745	 0.234025001525879 
746	 0.234170317649841 
747	 0.234327852725983 
748	 0.234584987163544 
749	 0.234773248434067 
750	 0.234873503446579 
751	 0.235143512487411 
752	 0.235359311103821 
753	 0.235569462180138 
754	 0.235821634531021 
755	 0.235957786440849 
756	 0.236141666769981 
757	 0.23640650510788 
758	 0.236697271466255 
759	 0.236829593777657 
760	 0.237040519714355 
761	 0.237339541316032 
762	 0.237558335065842 
763	 0.237748086452484 
764	 0.23794524371624 
765	 0.238162249326706 
766	 0.238380834460258 
767	 0.238610237836838 
768	 0.238876178860664 
769	 0.239148616790771 
770	 0.239253237843513 
771	 0.239468827843666 
772	 0.239754140377045 
773	 0.239978656172752 
774	 0.240118339657784 
775	 0.240317836403847 
776	 0.240543529391289 
777	 0.240682706236839 
778	 0.2408287525177 
779	 0.241012379527092 
780	 0.24122229218483 
781	 0.241410657763481 
782	 0.241530194878578 
783	 0.241648524999619 
784	 0.241814345121384 
785	 0.242018595337868 
786	 0.242081239819527 
787	 0.242119491100311 
788	 0.242235779762268 
789	 0.242320314049721 
790	 0.242353945970535 
791	 0.242406651377678 
792	 0.242539763450623 
793	 0.242650419473648 
794	 0.242795541882515 
795	 0.242913335561752 
796	 0.242903307080269 
797	 0.242818638682365 
798	 0.242767587304115 
799	 0.242767751216888 
800	 0.242766082286835 
801	 0.242844611406326 
802	 0.24286937713623 
803	 0.242812648415565 
804	 0.24279922246933 
805	 0.242729723453522 
806	 0.242668524384499 
807	 0.242651700973511 
808	 0.24261549115181 
809	 0.242473632097244 
810	 0.2423435151577 
811	 0.242307066917419 
812	 0.242200568318367 
813	 0.242119938135147 
814	 0.242035657167435 
815	 0.241908118128777 
816	 0.24183252453804 
817	 0.241666123270988 
818	 0.241460517048836 
819	 0.241330340504646 
820	 0.241153433918953 
821	 0.241011455655098 
822	 0.24089989066124 
823	 0.240756243467331 
824	 0.240620464086533 
825	 0.240456983447075 
826	 0.240259543061256 
827	 0.240051060914993 
828	 0.23976756632328 
829	 0.239582642912865 
830	 0.239513501524925 
831	 0.239354908466339 
832	 0.239141762256622 
833	 0.238972187042236 
834	 0.238858342170715 
835	 0.238658055663109 
836	 0.238460421562195 
837	 0.238199084997177 
838	 0.237895622849464 
839	 0.237817630171776 
840	 0.237666726112366 
841	 0.237440511584282 
842	 0.237237378954887 
843	 0.237198933959007 
844	 0.237001493573189 
845	 0.236704871058464 
846	 0.236464217305183 
847	 0.236270129680634 
848	 0.236082047224045 
849	 0.235896155238152 
850	 0.235719323158264 
851	 0.23553903400898 
852	 0.235288634896278 
853	 0.23504813015461 
854	 0.234934106469154 
855	 0.234877035021782 
856	 0.234822854399681 
857	 0.2347452044487 
858	 0.234621047973633 
859	 0.234335198998451 
860	 0.234020099043846 
861	 0.233787715435028 
862	 0.233691722154617 
863	 0.233649045228958 
864	 0.233498468995094 
865	 0.233279556035995 
866	 0.233164578676224 
867	 0.233099907636642 
868	 0.233035206794739 
869	 0.232946962118149 
870	 0.232841476798058 
871	 0.23273853957653 
872	 0.232681795954704 
873	 0.232631295919418 
874	 0.232493296265602 
875	 0.23236845433712 
876	 0.232230424880981 
877	 0.232105359435081 
878	 0.232075750827789 
879	 0.232197716832161 
880	 0.232185140252113 
881	 0.232027187943459 
882	 0.231992617249489 
883	 0.231954842805862 
884	 0.231939345598221 
885	 0.231942161917686 
886	 0.231917381286621 
887	 0.231842368841171 
888	 0.231827303767204 
889	 0.23188553750515 
890	 0.231920450925827 
891	 0.231901109218597 
892	 0.231892138719559 
893	 0.231939554214478 
894	 0.23204280436039 
895	 0.232115313410759 
896	 0.232147082686424 
897	 0.232143670320511 
898	 0.232128441333771 
899	 0.232211738824844 
900	 0.232341676950455 
901	 0.232443138957024 
902	 0.232472285628319 
903	 0.232603445649147 
904	 0.232715487480164 
905	 0.232783883810043 
906	 0.232863917946815 
907	 0.232843264937401 
908	 0.232881411910057 
909	 0.233034685254097 
910	 0.233251228928566 
911	 0.233442440629005 
912	 0.233588665723801 
913	 0.23366342484951 
914	 0.233687549829483 
915	 0.233913913369179 
916	 0.234155371785164 
917	 0.234343647956848 
918	 0.234487071633339 
919	 0.234560921788216 
920	 0.234673470258713 
921	 0.234840288758278 
922	 0.235035434365273 
923	 0.235265702009201 
924	 0.235475420951843 
925	 0.235669210553169 
926	 0.235871195793152 
927	 0.236088618636131 
928	 0.236312314867973 
929	 0.236497476696968 
930	 0.236648574471474 
931	 0.236886367201805 
932	 0.237018078565598 
933	 0.237124904990196 
934	 0.237325370311737 
935	 0.237663328647614 
936	 0.237981230020523 
937	 0.238211944699287 
938	 0.238367661833763 
939	 0.238529667258263 
940	 0.238740459084511 
941	 0.238952547311783 
942	 0.239177078008652 
943	 0.239461228251457 
944	 0.23962964117527 
945	 0.239749521017075 
946	 0.23993481695652 
947	 0.240240260958672 
948	 0.24039825797081 
949	 0.240565553307533 
950	 0.24078780412674 
951	 0.241020023822784 
952	 0.241135209798813 
953	 0.241404682397842 
954	 0.241724371910095 
955	 0.241911917924881 
956	 0.241941079497337 
957	 0.242086306214333 
958	 0.242327243089676 
959	 0.242604434490204 
960	 0.242913395166397 
961	 0.24307906627655 
962	 0.243255898356438 
963	 0.243501618504524 
964	 0.243719816207886 
965	 0.243863120675087 
966	 0.244047433137894 
967	 0.244296863675117 
968	 0.244564011693001 
969	 0.244840353727341 
970	 0.245037496089935 
971	 0.245167836546898 
972	 0.245283722877502 
973	 0.24540713429451 
974	 0.245621591806412 
975	 0.245713219046593 
976	 0.245705425739288 
977	 0.246037736535072 
978	 0.246350526809692 
979	 0.246587187051773 
980	 0.246763795614243 
981	 0.246925711631775 
982	 0.247143030166626 
983	 0.24719925224781 
984	 0.247201696038246 
985	 0.247328191995621 
986	 0.247322857379913 
987	 0.247396931052208 
988	 0.247542768716812 
989	 0.247718453407288 
990	 0.247945532202721 
991	 0.248077765107155 
992	 0.248267337679863 
993	 0.248472154140472 
994	 0.248479261994362 
995	 0.248597100377083 
996	 0.248639017343521 
997	 0.248621016740799 
998	 0.248677656054497 
999	 0.248873993754387 
1000	 0.248990759253502 
1001	 0.24946129322052 
1002	 0.24949212372303 
1003	 0.24952258169651 
1004	 0.249666258692741 
1005	 0.249772682785988 
1006	 0.249870017170906 
1007	 0.250015258789063 
1008	 0.249951258301735 
1009	 0.249953836202621 
1010	 0.249925822019577 
1011	 0.249933525919914 
1012	 0.249957546591759 
1013	 0.249993920326233 
1014	 0.250007510185242 
1015	 0.25007089972496 
1016	 0.25018510222435 
1017	 0.250264197587967 
1018	 0.250323742628098 
1019	 0.250369101762772 
1020	 0.250409156084061 
1021	 0.250483304262161 
1022	 0.250531494617462 
1023	 0.250566869974136 
1024	 0.250541388988495 
1025	 0.250364899635315 
1026	 0.250335574150085 
1027	 0.25032901763916 
1028	 0.250371128320694 
1029	 0.250509947538376 
1030	 0.250606775283813 
1031	 0.250681459903717 
1032	 0.250773638486862 
1033	 0.250810325145721 
1034	 0.250768184661865 
1035	 0.25071981549263 
1036	 0.250702649354935 
1037	 0.250677913427353 
1038	 0.250660270452499 
1039	 0.250676929950714 
1040	 0.250767171382904 
1041	 0.250750958919525 
1042	 0.250685572624207 
1043	 0.250681400299072 
1044	 0.25067013502121 
1045	 0.250590950250626 
1046	 0.250652641057968 
1047	 0.250721752643585 
1048	 0.250738531351089 
1049	 0.250737249851227 
1050	 0.250650376081467 
1051	 0.250596106052399 
1052	 0.25051361322403 
1053	 0.25043660402298 
1054	 0.250396758317947 
1055	 0.250351160764694 
1056	 0.250367164611816 
1057	 0.250431030988693 
1058	 0.250525712966919 
1059	 0.250611871480942 
1060	 0.250631183385849 
1061	 0.250592470169067 
1062	 0.250565230846405 
1063	 0.250518232584 
1064	 0.250531494617462 
1065	 0.250557631254196 
1066	 0.250565737485886 
1067	 0.250621169805527 
1068	 0.250659495592117 
1069	 0.25068062543869 
1070	 0.250714540481567 
1071	 0.250710070133209 
1072	 0.250660121440887 
1073	 0.250631302595139 
1074	 0.250620007514954 
1075	 0.250543534755707 
1076	 0.250497192144394 
1077	 0.250512212514877 
1078	 0.250540882349014 
1079	 0.250608295202255 
1080	 0.250677585601807 
1081	 0.250685274600983 
1082	 0.250659316778183 
1083	 0.250699579715729 
1084	 0.250785559415817 
1085	 0.250807791948318 
1086	 0.250821828842163 
1087	 0.250833123922348 
1088	 0.250820845365524 
1089	 0.25078272819519 
1090	 0.250819027423859 
1091	 0.250883847475052 
1092	 0.250945836305618 
1093	 0.250997245311737 
1094	 0.251067161560059 
1095	 0.25117164850235 
1096	 0.251247584819794 
1097	 0.25132417678833 
1098	 0.251436859369278 
1099	 0.251551359891891 
1100	 0.251636147499084 
1101	 0.251745700836182 
1102	 0.251879006624222 
1103	 0.251992404460907 
1104	 0.252060443162918 
1105	 0.252153277397156 
1106	 0.252220809459686 
1107	 0.252244293689728 
1108	 0.252261459827423 
1109	 0.252301096916199 
1110	 0.252385884523392 
1111	 0.252542644739151 
1112	 0.252727538347244 
1113	 0.252871990203857 
1114	 0.253023713827133 
1115	 0.253183037042618 
1116	 0.253345191478729 
1117	 0.253509879112244 
1118	 0.253721415996552 
1119	 0.253906697034836 
1120	 0.254000127315521 
1121	 0.254091292619705 
1122	 0.254259258508682 
1123	 0.254395008087158 
1124	 0.254560947418213 
1125	 0.254753828048706 
1126	 0.254901677370071 
1127	 0.255100607872009 
1128	 0.255287528038025 
1129	 0.255483955144882 
1130	 0.255657583475113 
1131	 0.255748987197876 
1132	 0.255898326635361 
1133	 0.256082206964493 
1134	 0.256252706050873 
1135	 0.256433516740799 
1136	 0.256647408008575 
1137	 0.256813198328018 
1138	 0.256939560174942 
1139	 0.257102847099304 
1140	 0.257278800010681 
1141	 0.25747737288475 
1142	 0.257699400186539 
1143	 0.257893085479736 
1144	 0.258104473352432 
1145	 0.25834321975708 
1146	 0.2585728764534 
1147	 0.258781045675278 
1148	 0.258933156728745 
1149	 0.259128719568253 
1150	 0.259312331676483 
1151	 0.259541183710098 
1152	 0.259811103343964 
1153	 0.260087221860886 
1154	 0.260324209928513 
1155	 0.260504692792892 
1156	 0.260713458061218 
1157	 0.260938346385956 
1158	 0.261159956455231 
1159	 0.261400401592255 
1160	 0.261598259210587 
1161	 0.261810153722763 
1162	 0.262079626321793 
1163	 0.262335240840912 
1164	 0.26260244846344 
1165	 0.262902051210403 
1166	 0.26316624879837 
1167	 0.263396561145782 
1168	 0.263664126396179 
1169	 0.263941645622253 
1170	 0.264192998409271 
1171	 0.264486849308014 
1172	 0.264816910028458 
1173	 0.26510101556778 
1174	 0.265382349491119 
1175	 0.265658527612686 
1176	 0.26593804359436 
1177	 0.266246736049652 
1178	 0.26654988527298 
1179	 0.26685556769371 
1180	 0.267147868871689 
1181	 0.267420738935471 
1182	 0.267717778682709 
1183	 0.268020480871201 
1184	 0.268347710371017 
1185	 0.268642753362656 
1186	 0.268929988145828 
1187	 0.269217878580093 
1188	 0.269478499889374 
1189	 0.269773036241531 
1190	 0.270084083080292 
1191	 0.270388424396515 
1192	 0.270767092704773 
1193	 0.271123588085175 
1194	 0.271467685699463 
1195	 0.271865665912628 
1196	 0.272198885679245 
1197	 0.272477924823761 
1198	 0.272772371768951 
1199	 0.27307716012001 
1200	 0.273403078317642 
1201	 0.273766249418259 
1202	 0.274102777242661 
1203	 0.274451196193695 
1204	 0.274777501821518 
1205	 0.275053143501282 
1206	 0.275374293327332 
1207	 0.275714695453644 
1208	 0.276072055101395 
1209	 0.276431560516357 
1210	 0.276793837547302 
1211	 0.277165681123734 
1212	 0.277525722980499 
1213	 0.277833640575409 
1214	 0.278167128562927 
1215	 0.278506934642792 
1216	 0.278815984725952 
1217	 0.279197931289673 
1218	 0.279593229293823 
1219	 0.279946714639664 
1220	 0.280275762081146 
1221	 0.280635088682175 
1222	 0.280961155891418 
1223	 0.281328141689301 
1224	 0.281761974096298 
1225	 0.282156616449356 
1226	 0.282557129859924 
1227	 0.282916337251663 
1228	 0.283255308866501 
1229	 0.283597677946091 
1230	 0.283954530954361 
1231	 0.284375041723251 
1232	 0.284830451011658 
1233	 0.285238534212112 
1234	 0.285609841346741 
1235	 0.285994857549667 
1236	 0.286347717046738 
1237	 0.286681801080704 
1238	 0.287073224782944 
1239	 0.287510544061661 
1240	 0.287890374660492 
1241	 0.288287699222565 
1242	 0.288682192564011 
1243	 0.289020836353302 
1244	 0.289389133453369 
1245	 0.289794236421585 
1246	 0.290177166461945 
1247	 0.290521055459976 
1248	 0.290928900241852 
1249	 0.291369885206223 
1250	 0.291803121566772 
1251	 0.292241543531418 
1252	 0.292642951011658 
1253	 0.292997926473618 
1254	 0.293373763561249 
1255	 0.293787032365799 
1256	 0.294190436601639 
1257	 0.294603109359741 
1258	 0.295036375522614 
1259	 0.295444369316101 
1260	 0.295834869146347 
1261	 0.29623219370842 
1262	 0.296619534492493 
1263	 0.297008752822876 
1264	 0.29739448428154 
1265	 0.297784596681595 
1266	 0.298188298940659 
1267	 0.298577934503555 
1268	 0.298951119184494 
1269	 0.29934087395668 
1270	 0.299728542566299 
1271	 0.300124228000641 
1272	 0.300540566444397 
1273	 0.300949394702911 
1274	 0.30134117603302 
1275	 0.301715850830078 
1276	 0.30211329460144 
1277	 0.302547216415405 
1278	 0.302979707717896 
1279	 0.303413540124893 
1280	 0.303829163312912 
1281	 0.304215341806412 
1282	 0.30461260676384 
1283	 0.305022090673447 
1284	 0.305413514375687 
1285	 0.305791199207306 
1286	 0.306166529655457 
1287	 0.306516736745834 
1288	 0.306901633739471 
1289	 0.307327330112457 
1290	 0.307708144187927 
1291	 0.308088421821594 
1292	 0.308447301387787 
1293	 0.308795690536499 
1294	 0.309159100055695 
1295	 0.309594601392746 
1296	 0.309995800256729 
1297	 0.310300290584564 
1298	 0.31063848733902 
1299	 0.310952097177505 
1300	 0.311281502246857 
1301	 0.311697453260422 
1302	 0.312092423439026 
1303	 0.312461316585541 
1304	 0.312808305025101 
1305	 0.313166111707687 
1306	 0.31350389122963 
1307	 0.313857525587082 
1308	 0.314206600189209 
1309	 0.314594000577927 
1310	 0.315004497766495 
1311	 0.315416097640991 
1312	 0.315871596336365 
1313	 0.316297382116318 
1314	 0.316701531410217 
1315	 0.317102670669556 
1316	 0.317495107650757 
1317	 0.317878931760788 
1318	 0.31827437877655 
1319	 0.318702846765518 
1320	 0.319128781557083 
1321	 0.319575846195221 
1322	 0.320034593343735 
1323	 0.320447146892548 
1324	 0.320814996957779 
1325	 0.321198910474777 
1326	 0.321598738431931 
1327	 0.321970224380493 
1328	 0.322380393743515 
1329	 0.322856605052948 
1330	 0.323273986577988 
1331	 0.323640763759613 
1332	 0.324064970016479 
1333	 0.324509680271149 
1334	 0.324924796819687 
1335	 0.325370818376541 
1336	 0.325784683227539 
1337	 0.326147735118866 
1338	 0.326530635356903 
1339	 0.326903074979782 
1340	 0.327296614646912 
1341	 0.327716827392578 
1342	 0.32809767127037 
1343	 0.328481942415237 
1344	 0.328889310359955 
1345	 0.329268455505371 
1346	 0.329644739627838 
1347	 0.330025732517242 
1348	 0.330401808023453 
1349	 0.330789268016815 
1350	 0.331143885850906 
1351	 0.33146795630455 
1352	 0.331770926713943 
1353	 0.332074731588364 
1354	 0.332330137491226 
1355	 0.332635253667831 
1356	 0.332961440086365 
1357	 0.333288967609406 
1358	 0.333618760108948 
1359	 0.333978116512299 
1360	 0.334345906972885 
1361	 0.334740340709686 
1362	 0.335215479135513 
1363	 0.33558914065361 
1364	 0.335934162139893 
1365	 0.336271166801453 
1366	 0.336526215076447 
1367	 0.336822837591171 
1368	 0.337169945240021 
1369	 0.337454348802567 
1370	 0.337741374969482 
1371	 0.337995648384094 
1372	 0.338148325681686 
1373	 0.338295876979828 
1374	 0.338424533605576 
1375	 0.338483572006226 
1376	 0.338521659374237 
1377	 0.338521212339401 
1378	 0.338467657566071 
1379	 0.33833247423172 
1380	 0.338015019893646 
1381	 0.337660938501358 
1382	 0.336993724107742 
1383	 0.336183339357376 
1384	 0.335007548332214 
1385	 0.333589673042297 
1386	 0.331897228956223 
1387	 0.329796761274338 
1388	 0.32770511507988 
1389	 0.32530352473259 
1390	 0.323089808225632 
1391	 0.320661664009094 
1392	 0.318644881248474 
1393	 0.316663086414337 
1394	 0.315112054347992 
1395	 0.313894659280777 
1396	 0.312943607568741 
1397	 0.312386184930801 
1398	 0.311935633420944 
1399	 0.311773777008057 
1400	 0.311670899391174 
1401	 0.311647295951843 
1402	 0.311689585447311 
1403	 0.311687022447586 
1404	 0.311712116003037 
1405	 0.311765193939209 
1406	 0.311843484640121 
1407	 0.311944514513016 
1408	 0.312091320753098 
1409	 0.312204748392105 
1410	 0.312306106090546 
1411	 0.312527537345886 
1412	 0.312705457210541 
1413	 0.313188314437866 
1414	 0.31376925110817 
1415	 0.314667612314224 
1416	 0.315771549940109 
1417	 0.317190706729889 
1418	 0.319005906581879 
1419	 0.320785522460938 
1420	 0.322934031486511 
1421	 0.32479539513588 
1422	 0.326689839363098 
1423	 0.328341096639633 
1424	 0.329905420541763 
1425	 0.331226170063019 
1426	 0.332324326038361 
1427	 0.333283543586731 
1428	 0.334014117717743 
1429	 0.334673851728439 
1430	 0.335188776254654 
1431	 0.33561959862709 
1432	 0.33588320016861 
1433	 0.336161702871323 
1434	 0.336371093988419 
1435	 0.336546063423157 
1436	 0.336729109287262 
1437	 0.336907207965851 
1438	 0.337060213088989 
1439	 0.337205022573471 
1440	 0.337367355823517 
1441	 0.33753964304924 
1442	 0.33774346113205 
1443	 0.337979018688202 
1444	 0.338237076997757 
1445	 0.338529735803604 
1446	 0.338836938142776 
1447	 0.339156687259674 
1448	 0.339498549699783 
1449	 0.339869976043701 
1450	 0.340252250432968 
1451	 0.34065392613411 
1452	 0.341061979532242 
1453	 0.341499119997025 
1454	 0.341909945011139 
1455	 0.342320531606674 
1456	 0.342718422412872 
1457	 0.343087792396545 
1458	 0.343492686748505 
1459	 0.343893557786942 
1460	 0.344334542751312 
1461	 0.344818323850632 
1462	 0.345283567905426 
1463	 0.345768451690674 
1464	 0.34624457359314 
1465	 0.346707791090012 
1466	 0.347190290689468 
1467	 0.347690582275391 
1468	 0.34817162156105 
1469	 0.348625421524048 
1470	 0.34912896156311 
1471	 0.349689096212387 
1472	 0.350183665752411 
1473	 0.350665152072906 
1474	 0.351156949996948 
1475	 0.351611793041229 
1476	 0.352052956819534 
1477	 0.352571249008179 
1478	 0.353077173233032 
1479	 0.353510111570358 
1480	 0.353948056697845 
1481	 0.354368299245834 
1482	 0.354780465364456 
1483	 0.355240225791931 
1484	 0.355696231126785 
1485	 0.356096684932709 
1486	 0.356481164693832 
1487	 0.356869071722031 
1488	 0.357232332229614 
1489	 0.357629805803299 
1490	 0.358058363199234 
1491	 0.358419269323349 
1492	 0.3587486743927 
1493	 0.359090894460678 
1494	 0.359425514936447 
1495	 0.359721511602402 
1496	 0.359997779130936 
1497	 0.360302537679672 
1498	 0.360589265823364 
1499	 0.360872507095337 
1500	 0.36120679974556 
1501	 0.36145082116127 
1502	 0.361609399318695 
1503	 0.361822873353958 
1504	 0.362031072378159 
1505	 0.362234860658646 
1506	 0.362471044063568 
1507	 0.362664580345154 
1508	 0.362799972295761 
1509	 0.36298006772995 
1510	 0.363170236349106 
1511	 0.363360345363617 
1512	 0.363574802875519 
1513	 0.363774478435516 
1514	 0.363951086997986 
1515	 0.364153176546097 
1516	 0.364367008209229 
1517	 0.364587306976318 
1518	 0.364841371774673 
1519	 0.365056693553925 
1520	 0.365242481231689 
1521	 0.365447372198105 
1522	 0.365631818771362 
1523	 0.365845739841461 
1524	 0.366111576557159 
1525	 0.36633887887001 
1526	 0.366533547639847 
1527	 0.36675688624382 
1528	 0.366976320743561 
1529	 0.36720484495163 
1530	 0.367446482181549 
1531	 0.367729634046555 
1532	 0.367976278066635 
1533	 0.36818927526474 
1534	 0.368453025817871 
1535	 0.368702739477158 
1536	 0.368922531604767 
1537	 0.369195610284805 
1538	 0.369439572095871 
1539	 0.369662314653397 
1540	 0.36994257569313 
1541	 0.370217889547348 
1542	 0.370494782924652 
1543	 0.370799839496613 
1544	 0.371086567640305 
1545	 0.371388494968414 
1546	 0.371739149093628 
1547	 0.372075170278549 
1548	 0.372426956892014 
1549	 0.372778505086899 
1550	 0.373061090707779 
1551	 0.373348832130432 
1552	 0.373642683029175 
1553	 0.373931884765625 
1554	 0.374248951673508 
1555	 0.374576568603516 
1556	 0.374923914670944 
1557	 0.37531316280365 
1558	 0.375741541385651 
1559	 0.376172482967377 
1560	 0.376588016748428 
1561	 0.376994401216507 
1562	 0.377362310886383 
1563	 0.377717047929764 
1564	 0.378150135278702 
1565	 0.378600090742111 
1566	 0.378982275724411 
1567	 0.379380285739899 
1568	 0.379782378673553 
1569	 0.380125969648361 
1570	 0.38052225112915 
1571	 0.380985647439957 
1572	 0.381401896476746 
1573	 0.381784945726395 
1574	 0.382210582494736 
1575	 0.382666707038879 
1576	 0.38309109210968 
1577	 0.383522093296051 
1578	 0.383933752775192 
1579	 0.384309083223343 
1580	 0.384697079658508 
1581	 0.38509139418602 
1582	 0.385495960712433 
1583	 0.385880053043365 
1584	 0.386302411556244 
1585	 0.386755079030991 
1586	 0.387211292982101 
1587	 0.38769856095314 
1588	 0.388166695833206 
1589	 0.388629674911499 
1590	 0.389092534780502 
1591	 0.38954821228981 
1592	 0.3900126516819 
1593	 0.390502482652664 
1594	 0.390940755605698 
1595	 0.391355276107788 
1596	 0.39177668094635 
1597	 0.392156541347504 
1598	 0.39257550239563 
1599	 0.393008500337601 
1600	 0.393453538417816 
1601	 0.393925189971924 
1602	 0.394387006759644 
1603	 0.394877791404724 
1604	 0.395307332277298 
1605	 0.395681619644165 
1606	 0.396119683980942 
1607	 0.396561294794083 
1608	 0.396994113922119 
1609	 0.397477775812149 
1610	 0.397893488407135 
1611	 0.398235619068146 
1612	 0.398641973733902 
1613	 0.399050891399384 
1614	 0.39949032664299 
1615	 0.399972409009933 
1616	 0.400438278913498 
1617	 0.400922834873199 
1618	 0.401374518871307 
1619	 0.401828974485397 
1620	 0.402243286371231 
1621	 0.402600526809692 
1622	 0.403006613254547 
1623	 0.403421372175217 
1624	 0.403818786144257 
1625	 0.404224097728729 
1626	 0.404626458883286 
1627	 0.405028223991394 
1628	 0.405405253171921 
1629	 0.405776590108871 
1630	 0.406143993139267 
1631	 0.406458616256714 
1632	 0.406816065311432 
1633	 0.407231360673904 
1634	 0.407595813274384 
1635	 0.40793764591217 
1636	 0.408300399780273 
1637	 0.408623456954956 
1638	 0.408994764089584 
1639	 0.409440606832504 
1640	 0.409806907176971 
1641	 0.410139501094818 
1642	 0.410511791706085 
1643	 0.410846292972565 
1644	 0.41122955083847 
1645	 0.411695569753647 
1646	 0.412073880434036 
1647	 0.412416815757751 
1648	 0.412777751684189 
1649	 0.413109123706818 
1650	 0.413461983203888 
1651	 0.413815557956696 
1652	 0.414194107055664 
1653	 0.414598047733307 
1654	 0.414967507123947 
1655	 0.415368556976318 
1656	 0.415731757879257 
1657	 0.416031926870346 
1658	 0.416374951601028 
1659	 0.416728079319 
1660	 0.417064487934113 
1661	 0.417427718639374 
1662	 0.417720645666122 
1663	 0.417960822582245 
1664	 0.418247193098068 
1665	 0.418519049882889 
1666	 0.418819725513458 
1667	 0.419109135866165 
1668	 0.419459730386734 
1669	 0.41978657245636 
1670	 0.420137017965317 
1671	 0.420505493879318 
1672	 0.420791298151016 
1673	 0.421087265014648 
1674	 0.421352803707123 
1675	 0.42160102725029 
1676	 0.421918839216232 
1677	 0.422227561473846 
1678	 0.42253589630127 
1679	 0.422864645719528 
1680	 0.42316722869873 
1681	 0.423478484153748 
1682	 0.42379441857338 
1683	 0.424114942550659 
1684	 0.424440503120422 
1685	 0.424691170454025 
1686	 0.424954682588577 
1687	 0.425290286540985 
1688	 0.425571501255035 
1689	 0.425830036401749 
1690	 0.426100164651871 
1691	 0.426332324743271 
1692	 0.426596373319626 
1693	 0.42690110206604 
1694	 0.427190959453583 
1695	 0.427479296922684 
1696	 0.427786409854889 
1697	 0.428108364343643 
1698	 0.428437769412994 
1699	 0.428794085979462 
1700	 0.429112046957016 
1701	 0.429381519556046 
1702	 0.429664939641953 
1703	 0.429888546466827 
1704	 0.430112212896347 
1705	 0.430363535881042 
1706	 0.430616766214371 
1707	 0.430940121412277 
1708	 0.431261509656906 
1709	 0.431593924760818 
1710	 0.431889027357101 
1711	 0.432070881128311 
1712	 0.432259380817413 
1713	 0.432428747415543 
1714	 0.432580798864365 
1715	 0.432798564434052 
1716	 0.433006227016449 
1717	 0.433189570903778 
1718	 0.433418422937393 
1719	 0.433673560619354 
1720	 0.433891803026199 
1721	 0.434083938598633 
1722	 0.43430307507515 
1723	 0.434525728225708 
1724	 0.434774219989777 
1725	 0.43507307767868 
1726	 0.435302555561066 
1727	 0.43551367521286 
1728	 0.435687780380249 
1729	 0.435844302177429 
1730	 0.436001777648926 
1731	 0.436165899038315 
1732	 0.436303496360779 
1733	 0.436445504426956 
1734	 0.436590760946274 
1735	 0.43674024939537 
1736	 0.436868935823441 
1737	 0.437060803174973 
1738	 0.437244057655334 
1739	 0.437413454055786 
1740	 0.437606126070023 
1741	 0.437799692153931 
1742	 0.437945246696472 
1743	 0.438042670488358 
1744	 0.438175976276398 
1745	 0.438336670398712 
1746	 0.438491880893707 
1747	 0.438722133636475 
1748	 0.43894162774086 
1749	 0.439067155122757 
1750	 0.439217388629913 
1751	 0.439414113759995 
1752	 0.439575880765915 
1753	 0.439734369516373 
1754	 0.439924120903015 
1755	 0.440038502216339 
1756	 0.440112859010696 
1757	 0.440263986587524 
1758	 0.440442770719528 
1759	 0.440615594387054 
1760	 0.44079127907753 
1761	 0.440894067287445 
1762	 0.440973222255707 
1763	 0.441071748733521 
1764	 0.441167384386063 
1765	 0.441367536783218 
1766	 0.441542148590088 
1767	 0.441613703966141 
1768	 0.44172814488411 
1769	 0.441786527633667 
1770	 0.441834360361099 
1771	 0.441997915506363 
1772	 0.44215914607048 
1773	 0.442310601472855 
1774	 0.442475080490112 
1775	 0.442547887563705 
1776	 0.442580103874207 
1777	 0.442621827125549 
1778	 0.442685514688492 
1779	 0.442866444587708 
1780	 0.44298642873764 
1781	 0.443131625652313 
1782	 0.443274587392807 
1783	 0.443359285593033 
1784	 0.443492740392685 
1785	 0.443596839904785 
1786	 0.443709552288055 
1787	 0.443818658590317 
1788	 0.443864524364471 
1789	 0.443950235843658 
1790	 0.444004654884338 
1791	 0.444031536579132 
1792	 0.444121688604355 
1793	 0.444189995527267 
1794	 0.444248527288437 
1795	 0.444321632385254 
1796	 0.44435703754425 
1797	 0.444409489631653 
1798	 0.444508403539658 
1799	 0.444624483585358 
1800	 0.444762289524078 
1801	 0.444893330335617 
1802	 0.444980084896088 
1803	 0.445081621408463 
1804	 0.445192813873291 
1805	 0.445249885320663 
1806	 0.445280164480209 
1807	 0.445267051458359 
1808	 0.445278704166412 
1809	 0.445318460464478 
1810	 0.445378094911575 
1811	 0.445491433143616 
1812	 0.44552007317543 
1813	 0.445520371198654 
1814	 0.445490449666977 
1815	 0.445525944232941 
1816	 0.445569545030594 
1817	 0.445623904466629 
1818	 0.445718169212341 
1819	 0.445781588554382 
1820	 0.445891857147217 
1821	 0.446031451225281 
1822	 0.4461629986763 
1823	 0.446296960115433 
1824	 0.446432203054428 
1825	 0.4465591609478 
1826	 0.446627825498581 
1827	 0.446643263101578 
1828	 0.446640640497208 
1829	 0.446610450744629 
1830	 0.446606785058975 
1831	 0.461062908172607 
1832	 0.461131542921066 
1833	 0.461111515760422 
1834	 0.460979998111725 
1835	 0.460905998945236 
1836	 0.460756927728653 
1837	 0.460649013519287 
1838	 0.460615366697311 
1839	 0.460514426231384 
1840	 0.460274368524551 
1841	 0.46001923084259 
1842	 0.459672033786774 
1843	 0.459339022636414 
1844	 0.459012538194656 
1845	 0.458671718835831 
1846	 0.458353042602539 
1847	 0.458051800727844 
1848	 0.45774307847023 
1849	 0.457412123680115 
1850	 0.457151025533676 
1851	 0.456859648227692 
1852	 0.456493973731995 
1853	 0.456091225147247 
1854	 0.45567923784256 
1855	 0.455244511365891 
1856	 0.454734086990356 
1857	 0.454283118247986 
1858	 0.453879982233047 
1859	 0.453415840864182 
1860	 0.45288211107254 
1861	 0.452362090349197 
1862	 0.451753497123718 
1863	 0.451126396656036 
1864	 0.450591117143631 
1865	 0.449954509735107 
1866	 0.449286013841629 
1867	 0.448533982038498 
1868	 0.447874218225479 
1869	 0.447209179401398 
1870	 0.446435779333115 
1871	 0.44558048248291 
1872	 0.444636255502701 
1873	 0.443577110767365 
1874	 0.442522913217545 
1875	 0.441472560167313 
1876	 0.440329641103745 
1877	 0.439204186201096 
1878	 0.438043892383575 
1879	 0.436887949705124 
1880	 0.435671716928482 
1881	 0.434372305870056 
1882	 0.433029681444168 
1883	 0.431605100631714 
1884	 0.430081576108933 
1885	 0.428693294525146 
1886	 0.42728790640831 
1887	 0.425669342279434 
1888	 0.424023360013962 
1889	 0.422373652458191 
1890	 0.420591205358505 
1891	 0.418634623289108 
1892	 0.416643679141998 
1893	 0.414541035890579 
1894	 0.412362337112427 
1895	 0.410086840391159 
1896	 0.407738119363785 
1897	 0.405292749404907 
1898	 0.402850985527039 
1899	 0.400482386350632 
1900	 0.398128479719162 
1901	 0.395778447389603 
1902	 0.393530368804932 
1903	 0.39132085442543 
1904	 0.389164865016937 
1905	 0.387226551771164 
1906	 0.3854641020298 
1907	 0.383819609880447 
1908	 0.382240951061249 
1909	 0.380777657032013 
1910	 0.379550963640213 
1911	 0.378495872020721 
1912	 0.377601742744446 
1913	 0.376933813095093 
1914	 0.3764828145504 
1915	 0.376105964183807 
1916	 0.375797301530838 
1917	 0.375646114349365 
1918	 0.375592947006226 
1919	 0.375545829534531 
1920	 0.375536441802979 
1921	 0.375595897436142 
1922	 0.375630617141724 
1923	 0.375649094581604 
1924	 0.37563219666481 
1925	 0.375674694776535 
1926	 0.375686317682266 
1927	 0.375705361366272 
1928	 0.375785320997238 
1929	 0.375833839178085 
1930	 0.375851213932037 
1931	 0.375877857208252 
1932	 0.375906884670258 
1933	 0.375900864601135 
1934	 0.375872939825058 
1935	 0.375904828310013 
1936	 0.375947117805481 
1937	 0.375908225774765 
1938	 0.375909179449081 
1939	 0.375918716192245 
1940	 0.37588968873024 
1941	 0.375792950391769 
1942	 0.375614494085312 
1943	 0.375481516122818 
1944	 0.375377744436264 
1945	 0.375200062990189 
1946	 0.37511995434761 
1947	 0.375158965587616 
1948	 0.375159740447998 
1949	 0.375100284814835 
1950	 0.375065982341766 
1951	 0.375063210725784 
1952	 0.375137209892273 
1953	 0.375284552574158 
1954	 0.375501304864883 
1955	 0.375702381134033 
1956	 0.375854164361954 
1957	 0.376026898622513 
1958	 0.376189529895782 
1959	 0.376345992088318 
1960	 0.376514375209808 
1961	 0.376676052808762 
1962	 0.376813054084778 
1963	 0.37692990899086 
1964	 0.377062320709229 
1965	 0.377185970544815 
1966	 0.377309203147888 
1967	 0.377486079931259 
1968	 0.377616584300995 
1969	 0.377742052078247 
1970	 0.377855241298676 
1971	 0.377920180559158 
1972	 0.377991169691086 
1973	 0.378055065870285 
1974	 0.378185719251633 
1975	 0.378202438354492 
1976	 0.37817445397377 
1977	 0.378145486116409 
1978	 0.378016024827957 
1979	 0.37799271941185 
1980	 0.378132909536362 
1981	 0.378242462873459 
1982	 0.378434956073761 
1983	 0.378592550754547 
1984	 0.378677248954773 
1985	 0.378866612911224 
1986	 0.379107058048248 
1987	 0.379390329122543 
1988	 0.37966975569725 
1989	 0.379972040653229 
1990	 0.380263775587082 
1991	 0.380499243736267 
1992	 0.380827099084854 
1993	 0.381282925605774 
1994	 0.381698250770569 
1995	 0.382144600152969 
1996	 0.382569849491119 
1997	 0.382922738790512 
1998	 0.383414834737778 
1999	 0.383958965539932 
2000	 0.384555399417877 
2001	 0.385239392518997 
2002	 0.38593652844429 
2003	 0.386555522680283 
2004	 0.387226700782776 
2005	 0.387919038534164 
2006	 0.388654381036758 
2007	 0.389449089765549 
2008	 0.390290766954422 
2009	 0.39116969704628 
2010	 0.392099350690842 
2011	 0.393058240413666 
2012	 0.394030898809433 
2013	 0.39512512087822 
2014	 0.396186351776123 
2015	 0.397315740585327 
2016	 0.398511946201324 
2017	 0.399645388126373 
2018	 0.400761097669601 
2019	 0.401935696601868 
2020	 0.403153240680695 
2021	 0.404391139745712 
2022	 0.405634611845016 
2023	 0.406987696886063 
2024	 0.40821436047554 
2025	 0.409337252378464 
2026	 0.410512357950211 
2027	 0.411640405654907 
2028	 0.412870556116104 
2029	 0.414082765579224 
2030	 0.415236353874207 
2031	 0.416417002677917 
2032	 0.417536497116089 
2033	 0.418662041425705 
2034	 0.419839292764664 
2035	 0.420986771583557 
2036	 0.422149032354355 
2037	 0.423253118991852 
2038	 0.424330621957779 
2039	 0.425376683473587 
2040	 0.426401734352112 
2041	 0.427369117736816 
2042	 0.42829492688179 
2043	 0.42919448018074 
2044	 0.430034339427948 
2045	 0.430851846933365 
2046	 0.431684851646423 
2047	 0.432512879371643 
2048	 0.433261871337891 
2049	 0.433959662914276 
2050	 0.434642493724823 
2051	 0.435211956501007 
2052	 0.435882747173309 
2053	 0.436660826206207 
2054	 0.437313169240952 
2055	 0.437881767749786 
2056	 0.438528329133987 
2057	 0.439144402742386 
2058	 0.439789861440659 
2059	 0.440429955720901 
2060	 0.441105872392654 
2061	 0.441782027482986 
2062	 0.442378163337708 
2063	 0.442925691604614 
2064	 0.44339308142662 
2065	 0.443853914737701 
2066	 0.444172888994217 
2067	 0.444580584764481 
2068	 0.4450543820858 
2069	 0.44549298286438 
2070	 0.445897400379181 
2071	 0.446299225091934 
2072	 0.446663647890091 
2073	 0.447124928236008 
2074	 0.447525888681412 
2075	 0.44787985086441 
2076	 0.448238521814346 
2077	 0.448575526475906 
2078	 0.448882520198822 
2079	 0.44929039478302 
2080	 0.449678838253021 
2081	 0.450107365846634 
2082	 0.450430065393448 
2083	 0.450716525316238 
2084	 0.451014786958694 
2085	 0.451250284910202 
2086	 0.451518893241882 
2087	 0.451865762472153 
2088	 0.45212784409523 
2089	 0.452358424663544 
2090	 0.452510565519333 
2091	 0.452715814113617 
2092	 0.452786922454834 
2093	 0.452833116054535 
2094	 0.452949792146683 
2095	 0.452875941991806 
2096	 0.452786237001419 
2097	 0.452824354171753 
2098	 0.452888488769531 
2099	 0.452944785356522 
2100	 0.453197598457336 
2101	 0.45324894785881 
2102	 0.453108191490173 
2103	 0.453082144260406 
2104	 0.453096508979797 
2105	 0.45300629734993 
2106	 0.452865988016129 
2107	 0.452810555696487 
2108	 0.452594459056854 
2109	 0.452371031045914 
2110	 0.452353060245514 
2111	 0.452292263507843 
2112	 0.452227801084518 
2113	 0.452209502458572 
2114	 0.452147752046585 
2115	 0.451982021331787 
2116	 0.451952338218689 
2117	 0.451988905668259 
2118	 0.452039510011673 
2119	 0.452166467905045 
2120	 0.452264130115509 
2121	 0.452397048473358 
2122	 0.452469617128372 
2123	 0.452486038208008 
2124	 0.452543467283249 
2125	 0.452639073133469 
2126	 0.452655822038651 
2127	 0.452559024095535 
2128	 0.452613592147827 
2129	 0.452695369720459 
2130	 0.452551543712616 
2131	 0.452462077140808 
2132	 0.452366828918457 
2133	 0.452278584241867 
2134	 0.452198654413223 
2135	 0.452013462781906 
2136	 0.451869815587997 
2137	 0.45154270529747 
2138	 0.451028347015381 
2139	 0.450451642274857 
2140	 0.449831545352936 
2141	 0.449086397886276 
2142	 0.44821760058403 
2143	 0.447255849838257 
2144	 0.446234971284866 
2145	 0.445021241903305 
2146	 0.443696737289429 
2147	 0.442309439182281 
2148	 0.440782397985458 
2149	 0.439287215471268 
2150	 0.437768250703812 
2151	 0.436161607503891 
2152	 0.434665769338608 
2153	 0.433158189058304 
2154	 0.43177542090416 
2155	 0.430530935525894 
2156	 0.429217040538788 
2157	 0.427863478660584 
2158	 0.426682353019714 
2159	 0.425480455160141 
2160	 0.42446693778038 
2161	 0.42366424202919 
2162	 0.422932922840118 
2163	 0.422325879335403 
2164	 0.421786665916443 
2165	 0.421273350715637 
2166	 0.42075651884079 
2167	 0.420279711484909 
2168	 0.419932663440704 
2169	 0.41961795091629 
2170	 0.419160783290863 
2171	 0.418717116117477 
2172	 0.418307155370712 
2173	 0.417882531881332 
2174	 0.417523175477982 
2175	 0.417113542556763 
2176	 0.416698396205902 
2177	 0.416168540716171 
2178	 0.415605455636978 
2179	 0.41498401761055 
2180	 0.414283663034439 
2181	 0.413479655981064 
2182	 0.41266331076622 
2183	 0.411688059568405 
2184	 0.41048863530159 
2185	 0.409334808588028 
2186	 0.408160656690598 
2187	 0.406853348016739 
2188	 0.405472129583359 
2189	 0.404096513986588 
2190	 0.402641177177429 
2191	 0.401181310415268 
2192	 0.399802416563034 
2193	 0.398354262113571 
2194	 0.396846801042557 
2195	 0.395430684089661 
2196	 0.393966972827911 
2197	 0.392608076334 
2198	 0.390948534011841 
2199	 0.389249235391617 
2200	 0.387272119522095 
2201	 0.384957820177078 
2202	 0.382639557123184 
2203	 0.380053997039795 
2204	 0.377609670162201 
2205	 0.374806553125381 
2206	 0.372689187526703 
2207	 0.370582193136215 
2208	 0.369379788637161 
2209	 0.368781358003616 
2210	 0.368860006332397 
2211	 0.369747430086136 
2212	 0.37112882733345 
2213	 0.372791916131973 
2214	 0.374882966279984 
2215	 0.3771071434021 
2216	 0.379026621580124 
2217	 0.380748152732849 
2218	 0.381968379020691 
2219	 0.382759511470795 
2220	 0.383118778467178 
2221	 0.383074462413788 
2222	 0.382809698581696 
2223	 0.382235437631607 
2224	 0.3812315762043 
2225	 0.380088359117508 
2226	 0.378725171089172 
2227	 0.377110719680786 
2228	 0.375263780355453 
2229	 0.373106181621552 
2230	 0.370600372552872 
2231	 0.368034958839417 
2232	 0.365242183208466 
2233	 0.362233698368073 
2234	 0.359122186899185 
2235	 0.355709075927734 
2236	 0.351838499307632 
2237	 0.348013013601303 
2238	 0.343989491462708 
2239	 0.340026617050171 
2240	 0.336059063673019 
2241	 0.332065165042877 
2242	 0.328031927347183 
2243	 0.324158668518066 
2244	 0.320393145084381 
2245	 0.316886782646179 
2246	 0.313896059989929 
2247	 0.311057657003403 
2248	 0.308419167995453 
2249	 0.306367874145508 
2250	 0.304795384407043 
2251	 0.303602486848831 
2252	 0.302828431129456 
2253	 0.302691727876663 
2254	 0.302650928497314 
2255	 0.302865475416183 
2256	 0.303426682949066 
2257	 0.304358929395676 
2258	 0.30550143122673 
2259	 0.307130217552185 
2260	 0.308613449335098 
2261	 0.310315608978271 
2262	 0.311848223209381 
2263	 0.313411295413971 
2264	 0.314755946397781 
2265	 0.316018760204315 
2266	 0.317170709371567 
2267	 0.318055093288422 
2268	 0.319005757570267 
2269	 0.320015281438828 
2270	 0.320806503295898 
2271	 0.321454882621765 
2272	 0.322182983160019 
2273	 0.322586357593536 
2274	 0.322777032852173 
2275	 0.323082506656647 
2276	 0.323116928339005 
2277	 0.323000222444534 
2278	 0.322977334260941 
2279	 0.32271146774292 
2280	 0.322120100259781 
2281	 0.321340948343277 
2282	 0.320558875799179 
2283	 0.31965634226799 
2284	 0.318530946969986 
2285	 0.317413657903671 
2286	 0.316150724887848 
2287	 0.314704865217209 
2288	 0.313320219516754 
2289	 0.31196254491806 
2290	 0.310534805059433 
2291	 0.309235036373138 
2292	 0.308081954717636 
2293	 0.306807965040207 
2294	 0.305436134338379 
2295	 0.304326772689819 
2296	 0.303306668996811 
2297	 0.302259892225266 
2298	 0.301408767700195 
2299	 0.300458073616028 
2300	 0.299352735280991 
2301	 0.298413664102554 
2302	 0.297579228878021 
2303	 0.296750873327255 
2304	 0.296069145202637 
2305	 0.295235961675644 
2306	 0.294364780187607 
2307	 0.293489366769791 
2308	 0.292493969202042 
2309	 0.291492581367493 
2310	 0.290572792291641 
2311	 0.289547979831696 
2312	 0.288309454917908 
2313	 0.287284940481186 
2314	 0.28642725944519 
2315	 0.285353660583496 
2316	 0.284246504306793 
2317	 0.283179849386215 
2318	 0.282078742980957 
2319	 0.2809799015522 
2320	 0.280108034610748 
2321	 0.279499799013138 
2322	 0.278765201568604 
2323	 0.277875781059265 
2324	 0.277076303958893 
2325	 0.276273250579834 
2326	 0.275491893291473 
2327	 0.274802774190903 
2328	 0.273984849452972 
2329	 0.273050516843796 
2330	 0.272081285715103 
2331	 0.271300584077835 
2332	 0.270800977945328 
2333	 0.270247787237167 
2334	 0.269778370857239 
2335	 0.269378632307053 
2336	 0.268749952316284 
2337	 0.268288284540176 
2338	 0.268069446086884 
2339	 0.267783105373383 
2340	 0.267518162727356 
2341	 0.267428666353226 
2342	 0.267476677894592 
2343	 0.26750910282135 
2344	 0.26763242483139 
2345	 0.267850428819656 
2346	 0.267965406179428 
2347	 0.268146008253098 
2348	 0.268732041120529 
2349	 0.269490391016006 
2350	 0.270073294639587 
2351	 0.270700663328171 
2352	 0.27131375670433 
2353	 0.271710842847824 
2354	 0.272446483373642 
2355	 0.273444086313248 
2356	 0.274353861808777 
2357	 0.275281429290771 
2358	 0.276327759027481 
2359	 0.2774578332901 
2360	 0.278575718402863 
2361	 0.279936522245407 
2362	 0.281009048223495 
2363	 0.281725615262985 
2364	 0.282916218042374 
2365	 0.284274309873581 
2366	 0.285451740026474 
2367	 0.286924719810486 
2368	 0.288151919841766 
2369	 0.289057493209839 
2370	 0.290059268474579 
2371	 0.291207492351532 
2372	 0.292101591825485 
2373	 0.292639166116714 
2374	 0.293428093194962 
2375	 0.294438600540161 
2376	 0.295036911964417 
2377	 0.295525193214417 
2378	 0.29604771733284 
2379	 0.296098679304123 
2380	 0.296520888805389 
2381	 0.297413408756256 
2382	 0.297909110784531 
2383	 0.298250257968903 
2384	 0.298648983240128 
2385	 0.298845499753952 
2386	 0.299090027809143 
2387	 0.299503713846207 
2388	 0.299787789583206 
2389	 0.299993127584457 
2390	 0.300119787454605 
2391	 0.299996465444565 
2392	 0.300189018249512 
2393	 0.300488084554672 
2394	 0.300744891166687 
2395	 0.301314532756805 
2396	 0.30155336856842 
2397	 0.301521897315979 
2398	 0.301621347665787 
2399	 0.301546305418015 
2400	 0.301834732294083 
2401	 0.302404582500458 
2402	 0.30267471075058 
2403	 0.303019911050797 
2404	 0.303318589925766 
2405	 0.303327560424805 
2406	 0.303596824407578 
2407	 0.304254561662674 
2408	 0.304447263479233 
2409	 0.304327696561813 
2410	 0.304445207118988 
2411	 0.304563045501709 
2412	 0.304490119218826 
2413	 0.30448117852211 
2414	 0.304460406303406 
2415	 0.30421394109726 
2416	 0.30392774939537 
2417	 0.303633034229279 
2418	 0.303424030542374 
2419	 0.303158402442932 
2420	 0.30284857749939 
2421	 0.302692532539368 
2422	 0.3023921251297 
2423	 0.301890909671783 
2424	 0.301401823759079 
2425	 0.300950855016708 
2426	 0.30043751001358 
2427	 0.299796611070633 
2428	 0.299123227596283 
2429	 0.298487156629562 
2430	 0.297801554203033 
2431	 0.296878188848495 
2432	 0.296223521232605 
2433	 0.295809745788574 
2434	 0.295095235109329 
2435	 0.294530093669891 
2436	 0.293518900871277 
2437	 0.291908323764801 
2438	 0.290860593318939 
2439	 0.289651125669479 
2440	 0.288984894752502 
2441	 0.288981378078461 
2442	 0.288603901863098 
2443	 0.288514107465744 
2444	 0.287723571062088 
2445	 0.286479920148849 
2446	 0.285447001457214 
2447	 0.283988207578659 
2448	 0.283141821622849 
2449	 0.282612949609756 
2450	 0.282087296247482 
2451	 0.281827449798584 
2452	 0.281372278928757 
2453	 0.28111669421196 
2454	 0.280069947242737 
2455	 0.278889924287796 
2456	 0.27790841460228 
2457	 0.276656240224838 
2458	 0.275922954082489 
2459	 0.275583744049072 
2460	 0.274644136428833 
2461	 0.273992985486984 
2462	 0.27362334728241 
2463	 0.272819459438324 
2464	 0.271847575902939 
2465	 0.271082371473312 
2466	 0.269956260919571 
2467	 0.269277721643448 
2468	 0.269507616758347 
2469	 0.269095808267593 
2470	 0.268462985754013 
2471	 0.267766505479813 
2472	 0.26634019613266 
2473	 0.265498459339142 
2474	 0.265125572681427 
2475	 0.264649271965027 
2476	 0.264663070440292 
2477	 0.264122128486633 
2478	 0.262891113758087 
2479	 0.262258380651474 
2480	 0.261712908744812 
2481	 0.261120557785034 
2482	 0.261116027832031 
2483	 0.260638564825058 
2484	 0.259667664766312 
2485	 0.258833676576614 
2486	 0.257630497217178 
2487	 0.257143050432205 
2488	 0.256948858499527 
2489	 0.256928652524948 
2490	 0.257991343736649 
2491	 0.257868111133575 
2492	 0.256935656070709 
2493	 0.256622493267059 
2494	 0.25594836473465 
2495	 0.255713880062103 
2496	 0.25616791844368 
2497	 0.256246030330658 
2498	 0.256121844053268 
2499	 0.256230920553207 
2500	 0.256755888462067 
