
Text conversion of header file \A_MEDIDAS\PROJETOS\BRASIL\BLOCO GAVIAO\JACOBINA\CANIF27\sco\CANIF27_026.10_00003.asd.ref
 -------------------------------------------------------------
                                                                                                                                                            
The instrument number was  16586/1
New ASD spectrum file: Program version = 6.00 file version = 1.00
Spectrum saved: 10/16/2018 at 10:12:19
VNIR integration time : 34
VNIR channel 1 wavelength = 350 wavelength step = 1
There were 50 samples per data value
xmin = 350 xmax= 2500
ymin= 0 ymax= 1.25
The instrument digitizes spectral values to 16 bits
SWIR1 gain was 214 offset was 2097
SWIR2 gain was 513 offset was 2267
Join between VNIR and SWIR1 was 1000 nm
Join between SWIR1 and SWIR2 was 1830 nm
Absolute Reflectance is Enabled
The Absolute Reflectance File is abs165861.ref
VNIR dark signal subtracted
50 dark measurements taken Tue Oct 16 09:52:54 2018
DCC value was 0
Data is compared to a white reference:
60 white reference measurements taken Tue Oct 16 09:53:02 2018
There was no foreoptic attached
Spectrum file is reflectance data
GPS-Latitude is S0
GPS-Longitude is E0
GPS-Altitude is 0
GPS-UTC is Wed Dec 31 17:00:00 1969

Smart Detector
Serial#  0
Signal (A)  0.000E00
Dark (A)  0.000E00
Ref (A)  0.000E00
Status  0 - Uninitialized
Gain  E-4
Averaging  0
Temp (C)  0.0
Humid (%)  0.0

Reflectance Absolute
Wavelength	CANIF27_26.10_00003.asd.ref
350	 0.258206337690353 
351	 0.25778204202652 
352	 0.265917360782623 
353	 0.270042717456818 
354	 0.263884514570236 
355	 0.261755168437958 
356	 0.272542268037796 
357	 0.279924750328064 
358	 0.269483059644699 
359	 0.269383490085602 
360	 0.271848082542419 
361	 0.273058831691742 
362	 0.272963315248489 
363	 0.26780179142952 
364	 0.268857836723328 
365	 0.277722299098969 
366	 0.28115701675415 
367	 0.279384285211563 
368	 0.278322994709015 
369	 0.281786531209946 
370	 0.283897638320923 
371	 0.283738285303116 
372	 0.281766355037689 
373	 0.279499232769012 
374	 0.280375421047211 
375	 0.282377988100052 
376	 0.283651798963547 
377	 0.283211439847946 
378	 0.284098118543625 
379	 0.285166829824448 
380	 0.285327970981598 
381	 0.285345613956451 
382	 0.286341279745102 
383	 0.287100583314896 
384	 0.286441743373871 
385	 0.288287580013275 
386	 0.289996117353439 
387	 0.291030079126358 
388	 0.292836844921112 
389	 0.292293757200241 
390	 0.291886955499649 
391	 0.293289512395859 
392	 0.294875174760818 
393	 0.295578986406326 
394	 0.295328706502914 
395	 0.294702380895615 
396	 0.295024156570435 
397	 0.295679658651352 
398	 0.296225935220718 
399	 0.296469211578369 
400	 0.296440184116364 
401	 0.297372400760651 
402	 0.299150198698044 
403	 0.299118757247925 
404	 0.298004895448685 
405	 0.297357648611069 
406	 0.298193991184235 
407	 0.298418402671814 
408	 0.298766076564789 
409	 0.299071341753006 
410	 0.298632591962814 
411	 0.298220276832581 
412	 0.297799497842789 
413	 0.297502189874649 
414	 0.297899037599564 
415	 0.29819992184639 
416	 0.297939479351044 
417	 0.297172874212265 
418	 0.29728776216507 
419	 0.297820538282394 
420	 0.298065781593323 
421	 0.297404050827026 
422	 0.297172099351883 
423	 0.296870619058609 
424	 0.296309947967529 
425	 0.296061664819717 
426	 0.296360462903976 
427	 0.296585559844971 
428	 0.296293199062347 
429	 0.296524196863174 
430	 0.296420753002167 
431	 0.29618889093399 
432	 0.296547323465347 
433	 0.296230465173721 
434	 0.29605358839035 
435	 0.296461760997772 
436	 0.29704350233078 
437	 0.296770840883255 
438	 0.296787679195404 
439	 0.298005998134613 
440	 0.298308461904526 
441	 0.29855290055275 
442	 0.298881888389587 
443	 0.2989881336689 
444	 0.299415171146393 
445	 0.299970746040344 
446	 0.300498753786087 
447	 0.301056444644928 
448	 0.30168217420578 
449	 0.302088856697083 
450	 0.302129089832306 
451	 0.302554219961166 
452	 0.303069204092026 
453	 0.303493857383728 
454	 0.303792029619217 
455	 0.304340809583664 
456	 0.304704457521439 
457	 0.304792404174805 
458	 0.305389225482941 
459	 0.305977642536163 
460	 0.306389689445496 
461	 0.306645601987839 
462	 0.307106256484985 
463	 0.307480722665787 
464	 0.307706892490387 
465	 0.307958453893662 
466	 0.308484792709351 
467	 0.309053599834442 
468	 0.309451073408127 
469	 0.309687167406082 
470	 0.310034155845642 
471	 0.310436457395554 
472	 0.310742378234863 
473	 0.31108745932579 
474	 0.311597555875778 
475	 0.312208265066147 
476	 0.312664151191711 
477	 0.313164591789246 
478	 0.313747644424438 
479	 0.314361780881882 
480	 0.314787238836288 
481	 0.315333127975464 
482	 0.316018730401993 
483	 0.316702008247375 
484	 0.317244797945023 
485	 0.317837864160538 
486	 0.318509072065353 
487	 0.319029837846756 
488	 0.319609761238098 
489	 0.320155829191208 
490	 0.320577174425125 
491	 0.321025043725967 
492	 0.321692287921906 
493	 0.322363048791885 
494	 0.322640120983124 
495	 0.323127895593643 
496	 0.32361701130867 
497	 0.324005395174026 
498	 0.324551999568939 
499	 0.324984639883041 
500	 0.325194150209427 
501	 0.325244218111038 
502	 0.325664609670639 
503	 0.326052933931351 
504	 0.326328098773956 
505	 0.326674193143845 
506	 0.326792597770691 
507	 0.326910614967346 
508	 0.327145010232925 
509	 0.32717826962471 
510	 0.327388942241669 
511	 0.327679872512817 
512	 0.327828943729401 
513	 0.327982127666473 
514	 0.328165352344513 
515	 0.328315794467926 
516	 0.328299701213837 
517	 0.328384757041931 
518	 0.328397482633591 
519	 0.328270345926285 
520	 0.328480303287506 
521	 0.328540652990341 
522	 0.328390687704086 
523	 0.328196436166763 
524	 0.328119933605194 
525	 0.328062027692795 
526	 0.327974110841751 
527	 0.327910661697388 
528	 0.327699899673462 
529	 0.327417075634003 
530	 0.327167451381683 
531	 0.326922655105591 
532	 0.326701790094376 
533	 0.326471418142319 
534	 0.32616913318634 
535	 0.325791239738464 
536	 0.325413227081299 
537	 0.32506075501442 
538	 0.324654012918472 
539	 0.324301362037659 
540	 0.323950409889221 
541	 0.323530107736588 
542	 0.323116064071655 
543	 0.322738766670227 
544	 0.322390079498291 
545	 0.322025567293167 
546	 0.321555465459824 
547	 0.321001768112183 
548	 0.320430278778076 
549	 0.31996738910675 
550	 0.319416373968124 
551	 0.318805992603302 
552	 0.318236321210861 
553	 0.317667484283447 
554	 0.317049652338028 
555	 0.31635645031929 
556	 0.315591365098953 
557	 0.314933329820633 
558	 0.314324885606766 
559	 0.31371995806694 
560	 0.313285499811172 
561	 0.312779307365417 
562	 0.312100440263748 
563	 0.311277687549591 
564	 0.310655623674393 
565	 0.310111910104752 
566	 0.309544891119003 
567	 0.308962374925613 
568	 0.308275282382965 
569	 0.307503670454025 
570	 0.306671530008316 
571	 0.305643439292908 
572	 0.304771572351456 
573	 0.304130762815475 
574	 0.303595334291458 
575	 0.303249955177307 
576	 0.302901893854141 
577	 0.302438169717789 
578	 0.301942855119705 
579	 0.301448315382004 
580	 0.300946652889252 
581	 0.300403982400894 
582	 0.299755185842514 
583	 0.29906353354454 
584	 0.29838964343071 
585	 0.297772645950317 
586	 0.297089874744415 
587	 0.296451896429062 
588	 0.295995861291885 
589	 0.295853734016418 
590	 0.295685708522797 
591	 0.295403629541397 
592	 0.295015692710876 
593	 0.294405043125153 
594	 0.293859273195267 
595	 0.293477565050125 
596	 0.293119311332703 
597	 0.292652487754822 
598	 0.292044043540955 
599	 0.291346997022629 
600	 0.29076686501503 
601	 0.290163189172745 
602	 0.289535641670227 
603	 0.288953363895416 
604	 0.288479894399643 
605	 0.288084417581558 
606	 0.287775933742523 
607	 0.287622362375259 
608	 0.287465363740921 
609	 0.287224113941193 
610	 0.286898761987686 
611	 0.286657989025116 
612	 0.286418884992599 
613	 0.286153465509415 
614	 0.285869866609573 
615	 0.285559743642807 
616	 0.285369604825974 
617	 0.285306423902512 
618	 0.28514102101326 
619	 0.284966886043549 
620	 0.284854382276535 
621	 0.284838765859604 
622	 0.28482460975647 
623	 0.28492271900177 
624	 0.28502830862999 
625	 0.28493270277977 
626	 0.285050451755524 
627	 0.285229533910751 
628	 0.285382598638535 
629	 0.285682171583176 
630	 0.285844832658768 
631	 0.285986810922623 
632	 0.286288619041443 
633	 0.28662446141243 
634	 0.286938369274139 
635	 0.287247121334076 
636	 0.287622541189194 
637	 0.288070529699326 
638	 0.288505136966705 
639	 0.288876593112946 
640	 0.289235204458237 
641	 0.2895248234272 
642	 0.289830774068832 
643	 0.290199726819992 
644	 0.290281534194946 
645	 0.290393263101578 
646	 0.290633529424667 
647	 0.290903717279434 
648	 0.291277348995209 
649	 0.29175928235054 
650	 0.29232856631279 
651	 0.292946040630341 
652	 0.293529450893402 
653	 0.294088333845139 
654	 0.294660866260529 
655	 0.295225411653519 
656	 0.295822262763977 
657	 0.296420812606812 
658	 0.296954452991486 
659	 0.297658503055573 
660	 0.298499673604965 
661	 0.299381017684937 
662	 0.300168812274933 
663	 0.301027595996857 
664	 0.301877856254578 
665	 0.302638649940491 
666	 0.303593039512634 
667	 0.304451555013657 
668	 0.305214792490005 
669	 0.306107521057129 
670	 0.307121008634567 
671	 0.308008790016174 
672	 0.308734923601151 
673	 0.309679180383682 
674	 0.310542583465576 
675	 0.311292409896851 
676	 0.311953544616699 
677	 0.312463700771332 
678	 0.312808454036713 
679	 0.313056737184525 
680	 0.313322484493256 
681	 0.313608169555664 
682	 0.313746511936188 
683	 0.313740372657776 
684	 0.31385937333107 
685	 0.314263731241226 
686	 0.314896941184998 
687	 0.315647423267365 
688	 0.316488802433014 
689	 0.317372381687164 
690	 0.318171828985214 
691	 0.318777710199356 
692	 0.319467127323151 
693	 0.320181876420975 
694	 0.320908427238464 
695	 0.321723222732544 
696	 0.322635740041733 
697	 0.323703438043594 
698	 0.324912011623383 
699	 0.326055377721787 
700	 0.327197551727295 
701	 0.328353703022003 
702	 0.329507797956467 
703	 0.330551981925964 
704	 0.331603765487671 
705	 0.332692325115204 
706	 0.333752572536469 
707	 0.334774315357208 
708	 0.335761994123459 
709	 0.336725413799286 
710	 0.337674081325531 
711	 0.33867222070694 
712	 0.33964017033577 
713	 0.340513527393341 
714	 0.341468989849091 
715	 0.342371463775635 
716	 0.343209505081177 
717	 0.344059407711029 
718	 0.344999253749847 
719	 0.345863223075867 
720	 0.346607118844986 
721	 0.347368687391281 
722	 0.348155528306961 
723	 0.349051505327225 
724	 0.350001752376556 
725	 0.350558906793594 
726	 0.3511922955513 
727	 0.351958334445953 
728	 0.352738708257675 
729	 0.353444844484329 
730	 0.354057043790817 
731	 0.354636520147324 
732	 0.355280518531799 
733	 0.355791121721268 
734	 0.356288135051727 
735	 0.356841653585434 
736	 0.357377976179123 
737	 0.358114808797836 
738	 0.358828902244568 
739	 0.359299182891846 
740	 0.359616816043854 
741	 0.360064029693604 
742	 0.360602021217346 
743	 0.361074596643448 
744	 0.361597269773483 
745	 0.362101376056671 
746	 0.36256068944931 
747	 0.362993389368057 
748	 0.363370835781097 
749	 0.363788783550262 
750	 0.36429151892662 
751	 0.364822238683701 
752	 0.365271508693695 
753	 0.365684568881989 
754	 0.366118520498276 
755	 0.366536289453506 
756	 0.366937875747681 
757	 0.367330491542816 
758	 0.36771696805954 
759	 0.368064403533936 
760	 0.368374764919281 
761	 0.368684351444244 
762	 0.369043856859207 
763	 0.36941459774971 
764	 0.369730710983276 
765	 0.369981706142426 
766	 0.370231956243515 
767	 0.370518177747726 
768	 0.370820820331573 
769	 0.371107488870621 
770	 0.371340602636337 
771	 0.371711730957031 
772	 0.372022956609726 
773	 0.372085124254227 
774	 0.37226191163063 
775	 0.372473180294037 
776	 0.372679650783539 
777	 0.372879236936569 
778	 0.373129338026047 
779	 0.373466998338699 
780	 0.373769104480743 
781	 0.373808115720749 
782	 0.373865872621536 
783	 0.374004513025284 
784	 0.374218642711639 
785	 0.374457448720932 
786	 0.37463715672493 
787	 0.374710708856583 
788	 0.374708920717239 
789	 0.374813109636307 
790	 0.374868720769882 
791	 0.374878376722336 
792	 0.374917954206467 
793	 0.375121802091599 
794	 0.375359654426575 
795	 0.375502616167068 
796	 0.375489890575409 
797	 0.375585347414017 
798	 0.375658869743347 
799	 0.375699907541275 
800	 0.375810086727142 
801	 0.375980824232101 
802	 0.376118183135986 
803	 0.376203894615173 
804	 0.376318424940109 
805	 0.376349091529846 
806	 0.376409739255905 
807	 0.376588851213455 
808	 0.376856982707977 
809	 0.376950919628143 
810	 0.377003878355026 
811	 0.377167463302612 
812	 0.377342075109482 
813	 0.377507239580154 
814	 0.3775854408741 
815	 0.377569854259491 
816	 0.377775460481644 
817	 0.377831876277924 
818	 0.377846717834473 
819	 0.378065317869186 
820	 0.37808546423912 
821	 0.378067016601563 
822	 0.378102600574493 
823	 0.378208488225937 
824	 0.378402084112167 
825	 0.378461450338364 
826	 0.3783840239048 
827	 0.378377944231033 
828	 0.378346711397171 
829	 0.378434330224991 
830	 0.378608226776123 
831	 0.378607928752899 
832	 0.378674268722534 
833	 0.378869980573654 
834	 0.37906602025032 
835	 0.378908693790436 
836	 0.378925979137421 
837	 0.37902095913887 
838	 0.379040896892548 
839	 0.379034548997879 
840	 0.379179835319519 
841	 0.379296720027924 
842	 0.379256010055542 
843	 0.379358261823654 
844	 0.379368752241135 
845	 0.379339426755905 
846	 0.379371285438538 
847	 0.379399508237839 
848	 0.379404783248901 
849	 0.379426568746567 
850	 0.379497736692429 
851	 0.379523009061813 
852	 0.37954306602478 
853	 0.379610806703568 
854	 0.379757910966873 
855	 0.379922568798065 
856	 0.379969745874405 
857	 0.379971206188202 
858	 0.380056113004684 
859	 0.37994858622551 
860	 0.379882037639618 
861	 0.379905045032501 
862	 0.379934847354889 
863	 0.380056351423264 
864	 0.380108296871185 
865	 0.38010311126709 
866	 0.380173295736313 
867	 0.380220949649811 
868	 0.38028758764267 
869	 0.380342215299606 
870	 0.380308985710144 
871	 0.380288600921631 
872	 0.380400747060776 
873	 0.380583733320236 
874	 0.38065168261528 
875	 0.380813151597977 
876	 0.38078910112381 
877	 0.380657017230988 
878	 0.380814582109451 
879	 0.381010264158249 
880	 0.381063580513 
881	 0.381037384271622 
882	 0.381192743778229 
883	 0.381454616785049 
884	 0.381551593542099 
885	 0.381504714488983 
886	 0.381610006093979 
887	 0.381683528423309 
888	 0.381771743297577 
889	 0.381867378950119 
890	 0.38189709186554 
891	 0.381907284259796 
892	 0.38190832734108 
893	 0.3819839656353 
894	 0.382233649492264 
895	 0.382285714149475 
896	 0.38244304060936 
897	 0.382649809122086 
898	 0.382542222738266 
899	 0.382583558559418 
900	 0.382593989372253 
901	 0.382595092058182 
902	 0.382780343294144 
903	 0.382881462574005 
904	 0.382999330759048 
905	 0.383130729198456 
906	 0.383179634809494 
907	 0.383183091878891 
908	 0.383117318153381 
909	 0.383092522621155 
910	 0.383234977722168 
911	 0.383217811584473 
912	 0.3834068775177 
913	 0.383707702159882 
914	 0.383809626102448 
915	 0.383947879076004 
916	 0.384078949689865 
917	 0.384129524230957 
918	 0.384085714817047 
919	 0.384210824966431 
920	 0.384205996990204 
921	 0.384251266717911 
922	 0.384556949138641 
923	 0.384664595127106 
924	 0.384831368923187 
925	 0.385049402713776 
926	 0.385198146104813 
927	 0.385125398635864 
928	 0.385177284479141 
929	 0.385332375764847 
930	 0.385501265525818 
931	 0.385715842247009 
932	 0.385689228773117 
933	 0.385658860206604 
934	 0.385819256305695 
935	 0.38605934381485 
936	 0.386301875114441 
937	 0.386331498622894 
938	 0.386229664087296 
939	 0.386397242546082 
940	 0.386482119560242 
941	 0.386604636907578 
942	 0.38670751452446 
943	 0.386589288711548 
944	 0.386600583791733 
945	 0.3865707218647 
946	 0.386474907398224 
947	 0.386378854513168 
948	 0.386117547750473 
949	 0.3858382999897 
950	 0.385568052530289 
951	 0.385253846645355 
952	 0.384815812110901 
953	 0.384441763162613 
954	 0.383975833654404 
955	 0.383368879556656 
956	 0.383055090904236 
957	 0.3826043009758 
958	 0.382188946008682 
959	 0.381939291954041 
960	 0.381712079048157 
961	 0.381664484739304 
962	 0.381759315729141 
963	 0.381878644227982 
964	 0.381942838430405 
965	 0.382416397333145 
966	 0.382839500904083 
967	 0.383214384317398 
968	 0.383848279714584 
969	 0.384749591350555 
970	 0.385594636201859 
971	 0.386192470788956 
972	 0.386583745479584 
973	 0.387161493301392 
974	 0.387670040130615 
975	 0.388048887252808 
976	 0.388349086046219 
977	 0.388695865869522 
978	 0.389074623584747 
979	 0.389298588037491 
980	 0.389468312263489 
981	 0.389847993850708 
982	 0.389941334724426 
983	 0.389956206083298 
984	 0.390046298503876 
985	 0.390212029218674 
986	 0.390169054269791 
987	 0.390193194150925 
988	 0.390369921922684 
989	 0.390603452920914 
990	 0.390637278556824 
991	 0.390773445367813 
992	 0.39087575674057 
993	 0.390910804271698 
994	 0.391001731157303 
995	 0.391051709651947 
996	 0.391112565994263 
997	 0.39115497469902 
998	 0.391114801168442 
999	 0.390970170497894 
1000	 0.391007572412491 
1001	 0.37593024969101 
1002	 0.375951886177063 
1003	 0.376036316156387 
1004	 0.376080721616745 
1005	 0.376045167446136 
1006	 0.375915944576263 
1007	 0.375989258289337 
1008	 0.376151084899902 
1009	 0.376229822635651 
1010	 0.376379817724228 
1011	 0.37644898891449 
1012	 0.376413136720657 
1013	 0.376423805952072 
1014	 0.376426160335541 
1015	 0.37645035982132 
1016	 0.376513779163361 
1017	 0.376512050628662 
1018	 0.376497715711594 
1019	 0.376537621021271 
1020	 0.376506805419922 
1021	 0.376534700393677 
1022	 0.376649498939514 
1023	 0.376665323972702 
1024	 0.376666218042374 
1025	 0.376635760068893 
1026	 0.376647889614105 
1027	 0.376663148403168 
1028	 0.376647740602493 
1029	 0.376670867204666 
1030	 0.37660813331604 
1031	 0.37652999162674 
1032	 0.376439034938812 
1033	 0.37633490562439 
1034	 0.37627649307251 
1035	 0.37619149684906 
1036	 0.376087784767151 
1037	 0.376046925783157 
1038	 0.376031219959259 
1039	 0.375989109277725 
1040	 0.375945299863815 
1041	 0.37590029835701 
1042	 0.37583926320076 
1043	 0.375783771276474 
1044	 0.375729829072952 
1045	 0.375686556100845 
1046	 0.375636905431747 
1047	 0.375565737485886 
1048	 0.375513046979904 
1049	 0.375499933958054 
1050	 0.375529944896698 
1051	 0.375546902418137 
1052	 0.37552011013031 
1053	 0.375424534082413 
1054	 0.375313192605972 
1055	 0.375106990337372 
1056	 0.375005394220352 
1057	 0.374940127134323 
1058	 0.374843508005142 
1059	 0.374799281358719 
1060	 0.374730706214905 
1061	 0.374639362096787 
1062	 0.374587923288345 
1063	 0.374499976634979 
1064	 0.374407529830933 
1065	 0.374240040779114 
1066	 0.374050796031952 
1067	 0.373968452215195 
1068	 0.373866826295853 
1069	 0.373777270317078 
1070	 0.373772352933884 
1071	 0.373690903186798 
1072	 0.373560458421707 
1073	 0.373432070016861 
1074	 0.373328745365143 
1075	 0.373237013816834 
1076	 0.373254328966141 
1077	 0.373249083757401 
1078	 0.373165130615234 
1079	 0.37309855222702 
1080	 0.372993797063828 
1081	 0.372884094715118 
1082	 0.372859567403793 
1083	 0.372825741767883 
1084	 0.372713953256607 
1085	 0.372635930776596 
1086	 0.372560411691666 
1087	 0.372463494539261 
1088	 0.372375100851059 
1089	 0.372388541698456 
1090	 0.372376948595047 
1091	 0.37231832742691 
1092	 0.372265130281448 
1093	 0.372148364782333 
1094	 0.372067451477051 
1095	 0.372050911188126 
1096	 0.372022300958633 
1097	 0.372050762176514 
1098	 0.372022181749344 
1099	 0.371985852718353 
1100	 0.371972292661667 
1101	 0.371934175491333 
1102	 0.371876448392868 
1103	 0.371861398220062 
1104	 0.371768295764923 
1105	 0.371643930673599 
1106	 0.37154495716095 
1107	 0.371432572603226 
1108	 0.371363639831543 
1109	 0.371394485235214 
1110	 0.371467411518097 
1111	 0.371447175741196 
1112	 0.371477425098419 
1113	 0.37153148651123 
1114	 0.371503800153732 
1115	 0.371499329805374 
1116	 0.371453940868378 
1117	 0.371406674385071 
1118	 0.371312916278839 
1119	 0.371252715587616 
1120	 0.371180474758148 
1121	 0.371124684810638 
1122	 0.371122121810913 
1123	 0.371070086956024 
1124	 0.371001690626144 
1125	 0.371004521846771 
1126	 0.370964199304581 
1127	 0.370918333530426 
1128	 0.370923489332199 
1129	 0.370917469263077 
1130	 0.370847433805466 
1131	 0.370745152235031 
1132	 0.370675772428513 
1133	 0.37056502699852 
1134	 0.3704654276371 
1135	 0.370364159345627 
1136	 0.370303183794022 
1137	 0.370195597410202 
1138	 0.370124042034149 
1139	 0.370103150606155 
1140	 0.370057731866837 
1141	 0.369992345571518 
1142	 0.369902014732361 
1143	 0.369778633117676 
1144	 0.369670569896698 
1145	 0.369625210762024 
1146	 0.369593411684036 
1147	 0.36954927444458 
1148	 0.369477480649948 
1149	 0.369387120008469 
1150	 0.369232535362244 
1151	 0.369153797626495 
1152	 0.36909806728363 
1153	 0.369046688079834 
1154	 0.369008749723434 
1155	 0.368952333927155 
1156	 0.368836790323257 
1157	 0.36869403719902 
1158	 0.368596076965332 
1159	 0.368543714284897 
1160	 0.368486732244492 
1161	 0.36844664812088 
1162	 0.368420511484146 
1163	 0.368376076221466 
1164	 0.368378400802612 
1165	 0.368372827768326 
1166	 0.368333518505096 
1167	 0.368276447057724 
1168	 0.368221372365952 
1169	 0.36812362074852 
1170	 0.368071496486664 
1171	 0.368058741092682 
1172	 0.367974430322647 
1173	 0.367930144071579 
1174	 0.367903470993042 
1175	 0.367836534976959 
1176	 0.367796510457993 
1177	 0.367773771286011 
1178	 0.367712140083313 
1179	 0.367612481117249 
1180	 0.367555737495422 
1181	 0.36750340461731 
1182	 0.367419332265854 
1183	 0.367369532585144 
1184	 0.367379903793335 
1185	 0.367329895496368 
1186	 0.367247074842453 
1187	 0.36720398068428 
1188	 0.367158889770508 
1189	 0.367122858762741 
1190	 0.367105096578598 
1191	 0.367044419050217 
1192	 0.366989731788635 
1193	 0.366925716400146 
1194	 0.36685985326767 
1195	 0.366855412721634 
1196	 0.36679607629776 
1197	 0.366712301969528 
1198	 0.366674959659576 
1199	 0.366561383008957 
1200	 0.366426795721054 
1201	 0.366345703601837 
1202	 0.366268485784531 
1203	 0.366192281246185 
1204	 0.366107910871506 
1205	 0.36606553196907 
1206	 0.365975320339203 
1207	 0.365818709135056 
1208	 0.365717113018036 
1209	 0.365686386823654 
1210	 0.365605294704437 
1211	 0.36557012796402 
1212	 0.365494132041931 
1213	 0.365298539400101 
1214	 0.365157604217529 
1215	 0.365013837814331 
1216	 0.364870548248291 
1217	 0.364814788103104 
1218	 0.364687770605087 
1219	 0.364555388689041 
1220	 0.364401251077652 
1221	 0.3642797768116 
1222	 0.364146500825882 
1223	 0.36405149102211 
1224	 0.364010959863663 
1225	 0.363902747631073 
1226	 0.363771677017212 
1227	 0.363651186227798 
1228	 0.363489896059036 
1229	 0.363351970911026 
1230	 0.363253057003021 
1231	 0.363127022981644 
1232	 0.36298006772995 
1233	 0.362826019525528 
1234	 0.362678498029709 
1235	 0.362510770559311 
1236	 0.362374097108841 
1237	 0.362256437540054 
1238	 0.362097889184952 
1239	 0.361938536167145 
1240	 0.361752688884735 
1241	 0.361506760120392 
1242	 0.361304402351379 
1243	 0.361110389232636 
1244	 0.360899567604065 
1245	 0.360675096511841 
1246	 0.360495924949646 
1247	 0.36030724644661 
1248	 0.36017569899559 
1249	 0.360093265771866 
1250	 0.360012322664261 
1251	 0.35994091629982 
1252	 0.359860181808472 
1253	 0.359805852174759 
1254	 0.359815537929535 
1255	 0.359851181507111 
1256	 0.359840244054794 
1257	 0.359824120998383 
1258	 0.3598293364048 
1259	 0.359810769557953 
1260	 0.359782308340073 
1261	 0.359757035970688 
1262	 0.359721481800079 
1263	 0.359669059514999 
1264	 0.359614998102188 
1265	 0.359547138214111 
1266	 0.359464347362518 
1267	 0.359375357627869 
1268	 0.359268814325333 
1269	 0.359173864126205 
1270	 0.35908704996109 
1271	 0.358974069356918 
1272	 0.358873009681702 
1273	 0.358749538660049 
1274	 0.358587473630905 
1275	 0.35844287276268 
1276	 0.358286499977112 
1277	 0.358127743005753 
1278	 0.357981830835342 
1279	 0.357816189527512 
1280	 0.357628643512726 
1281	 0.35742861032486 
1282	 0.357205659151077 
1283	 0.356957972049713 
1284	 0.356697171926498 
1285	 0.356421828269959 
1286	 0.356136053800583 
1287	 0.355823695659637 
1288	 0.355510115623474 
1289	 0.355174660682678 
1290	 0.354855597019196 
1291	 0.354531496763229 
1292	 0.354227095842361 
1293	 0.353904068470001 
1294	 0.353572070598602 
1295	 0.353263407945633 
1296	 0.352963745594025 
1297	 0.352644234895706 
1298	 0.352340489625931 
1299	 0.352067142724991 
1300	 0.351769059896469 
1301	 0.351489990949631 
1302	 0.351278513669968 
1303	 0.351040989160538 
1304	 0.350783050060272 
1305	 0.350533723831177 
1306	 0.350313067436218 
1307	 0.350059866905212 
1308	 0.349755614995956 
1309	 0.349526733160019 
1310	 0.349327176809311 
1311	 0.349131137132645 
1312	 0.349004805088043 
1313	 0.348818421363831 
1314	 0.348560452461243 
1315	 0.348379164934158 
1316	 0.348206490278244 
1317	 0.348066836595535 
1318	 0.348003745079041 
1319	 0.347933858633041 
1320	 0.347806036472321 
1321	 0.347725927829742 
1322	 0.347665935754776 
1323	 0.347596019506454 
1324	 0.347561150789261 
1325	 0.347508698701859 
1326	 0.347457438707352 
1327	 0.347369313240051 
1328	 0.347346782684326 
1329	 0.347365707159042 
1330	 0.347376734018326 
1331	 0.34739676117897 
1332	 0.347457528114319 
1333	 0.347543001174927 
1334	 0.34760570526123 
1335	 0.347695231437683 
1336	 0.347789615392685 
1337	 0.347864359617233 
1338	 0.347942739725113 
1339	 0.348057508468628 
1340	 0.348143935203552 
1341	 0.348211407661438 
1342	 0.348270773887634 
1343	 0.348306804895401 
1344	 0.348306179046631 
1345	 0.348295360803604 
1346	 0.348337799310684 
1347	 0.348396152257919 
1348	 0.348443686962128 
1349	 0.348441630601883 
1350	 0.348359227180481 
1351	 0.348283171653748 
1352	 0.34816500544548 
1353	 0.348048716783524 
1354	 0.347949773073196 
1355	 0.347775876522064 
1356	 0.347573697566986 
1357	 0.347326159477234 
1358	 0.347008228302002 
1359	 0.34671014547348 
1360	 0.346423715353012 
1361	 0.34605211019516 
1362	 0.345633208751678 
1363	 0.34520760178566 
1364	 0.34473067522049 
1365	 0.344248920679092 
1366	 0.343771815299988 
1367	 0.343280524015427 
1368	 0.34278130531311 
1369	 0.342220008373261 
1370	 0.341691464185715 
1371	 0.341149061918259 
1372	 0.34054046869278 
1373	 0.339942395687103 
1374	 0.339367210865021 
1375	 0.338795691728592 
1376	 0.338292002677917 
1377	 0.337786376476288 
1378	 0.337294697761536 
1379	 0.336721807718277 
1380	 0.335979402065277 
1381	 0.335209339857101 
1382	 0.334143698215485 
1383	 0.333032160997391 
1384	 0.331365913152695 
1385	 0.329557508230209 
1386	 0.327053010463715 
1387	 0.3242027759552 
1388	 0.320567637681961 
1389	 0.316432237625122 
1390	 0.311517000198364 
1391	 0.305803686380386 
1392	 0.299578160047531 
1393	 0.292413860559464 
1394	 0.285231441259384 
1395	 0.277252465486526 
1396	 0.26966980099678 
1397	 0.261643528938293 
1398	 0.254413694143295 
1399	 0.247459441423416 
1400	 0.241022229194641 
1401	 0.23529264330864 
1402	 0.230260968208313 
1403	 0.225828722119331 
1404	 0.22198785841465 
1405	 0.218771159648895 
1406	 0.215985581278801 
1407	 0.213614642620087 
1408	 0.211715161800385 
1409	 0.210272222757339 
1410	 0.209395378828049 
1411	 0.2093406021595 
1412	 0.209771126508713 
1413	 0.211384505033493 
1414	 0.213841125369072 
1415	 0.217288359999657 
1416	 0.221832811832428 
1417	 0.227012783288956 
1418	 0.233338534832001 
1419	 0.239697024226189 
1420	 0.246975064277649 
1421	 0.253866463899612 
1422	 0.261170119047165 
1423	 0.267877042293549 
1424	 0.274561434984207 
1425	 0.280656784772873 
1426	 0.286416202783585 
1427	 0.291581690311432 
1428	 0.296218425035477 
1429	 0.30047744512558 
1430	 0.304144740104675 
1431	 0.30756202340126 
1432	 0.310613930225372 
1433	 0.313379168510437 
1434	 0.315813720226288 
1435	 0.31791228055954 
1436	 0.319754749536514 
1437	 0.321391195058823 
1438	 0.322808086872101 
1439	 0.324026525020599 
1440	 0.325055718421936 
1441	 0.325905799865723 
1442	 0.326603651046753 
1443	 0.327216118574142 
1444	 0.327794432640076 
1445	 0.328250586986542 
1446	 0.328658282756805 
1447	 0.32898211479187 
1448	 0.329290270805359 
1449	 0.329536616802216 
1450	 0.329757392406464 
1451	 0.329948872327805 
1452	 0.330088347196579 
1453	 0.330147802829742 
1454	 0.33024325966835 
1455	 0.330333203077316 
1456	 0.330399245023727 
1457	 0.330470353364944 
1458	 0.330497324466705 
1459	 0.330459773540497 
1460	 0.330466896295547 
1461	 0.330477714538574 
1462	 0.330481141805649 
1463	 0.330499231815338 
1464	 0.330505609512329 
1465	 0.330490559339523 
1466	 0.330489486455917 
1467	 0.330527514219284 
1468	 0.330506503582001 
1469	 0.330420970916748 
1470	 0.330387353897095 
1471	 0.330359607934952 
1472	 0.330318003892899 
1473	 0.330314576625824 
1474	 0.330292224884033 
1475	 0.33024725317955 
1476	 0.330178946256638 
1477	 0.330110192298889 
1478	 0.330040723085403 
1479	 0.329988330602646 
1480	 0.329926162958145 
1481	 0.329917371273041 
1482	 0.329904735088348 
1483	 0.329816818237305 
1484	 0.329766422510147 
1485	 0.329731047153473 
1486	 0.329658389091492 
1487	 0.329625904560089 
1488	 0.329605996608734 
1489	 0.329551815986633 
1490	 0.329560697078705 
1491	 0.329616963863373 
1492	 0.32961094379425 
1493	 0.329600870609283 
1494	 0.329594552516937 
1495	 0.32955265045166 
1496	 0.32947450876236 
1497	 0.32940474152565 
1498	 0.329316675662994 
1499	 0.329237222671509 
1500	 0.329133689403534 
1501	 0.329077512025833 
1502	 0.329060256481171 
1503	 0.329014450311661 
1504	 0.328980594873428 
1505	 0.328940540552139 
1506	 0.328867971897125 
1507	 0.328831136226654 
1508	 0.328843593597412 
1509	 0.328798323869705 
1510	 0.32872998714447 
1511	 0.328672111034393 
1512	 0.328574270009995 
1513	 0.328517407178879 
1514	 0.328501880168915 
1515	 0.328466981649399 
1516	 0.32842081785202 
1517	 0.328394085168839 
1518	 0.328388571739197 
1519	 0.328355193138123 
1520	 0.328324645757675 
1521	 0.328285902738571 
1522	 0.32822385430336 
1523	 0.328164994716644 
1524	 0.328116327524185 
1525	 0.328052461147308 
1526	 0.32794064283371 
1527	 0.327878564596176 
1528	 0.327870547771454 
1529	 0.327812850475311 
1530	 0.327759504318237 
1531	 0.327700555324554 
1532	 0.327570915222168 
1533	 0.327430307865143 
1534	 0.327341794967651 
1535	 0.327250570058823 
1536	 0.32712858915329 
1537	 0.327003121376038 
1538	 0.326871454715729 
1539	 0.326759994029999 
1540	 0.326668858528137 
1541	 0.326585173606873 
1542	 0.326514363288879 
1543	 0.326419353485107 
1544	 0.326343536376953 
1545	 0.326303869485855 
1546	 0.326251268386841 
1547	 0.326164484024048 
1548	 0.326064020395279 
1549	 0.325986474752426 
1550	 0.325901120901108 
1551	 0.325818359851837 
1552	 0.325734287500381 
1553	 0.325629353523254 
1554	 0.325553297996521 
1555	 0.325497806072235 
1556	 0.325433492660522 
1557	 0.325363278388977 
1558	 0.325280964374542 
1559	 0.325201123952866 
1560	 0.32515487074852 
1561	 0.325100094079971 
1562	 0.325011640787125 
1563	 0.324909776449203 
1564	 0.324807435274124 
1565	 0.32474684715271 
1566	 0.324690997600555 
1567	 0.324597716331482 
1568	 0.324504792690277 
1569	 0.324392884969711 
1570	 0.324284672737122 
1571	 0.324177920818329 
1572	 0.324061244726181 
1573	 0.323919177055359 
1574	 0.323810249567032 
1575	 0.323715388774872 
1576	 0.323618948459625 
1577	 0.323547393083572 
1578	 0.323449850082397 
1579	 0.323333233594894 
1580	 0.323231339454651 
1581	 0.323123663663864 
1582	 0.323025643825531 
1583	 0.322932302951813 
1584	 0.322849690914154 
1585	 0.322780787944794 
1586	 0.322699427604675 
1587	 0.322626769542694 
1588	 0.322543978691101 
1589	 0.32244998216629 
1590	 0.322360306978226 
1591	 0.32227748632431 
1592	 0.32218000292778 
1593	 0.322057634592056 
1594	 0.321950107812881 
1595	 0.321857035160065 
1596	 0.321740716695786 
1597	 0.321618348360062 
1598	 0.321515798568726 
1599	 0.321389943361282 
1600	 0.321287095546722 
1601	 0.321228176355362 
1602	 0.321117281913757 
1603	 0.320980101823807 
1604	 0.320875585079193 
1605	 0.320759981870651 
1606	 0.32067146897316 
1607	 0.320628792047501 
1608	 0.320533156394959 
1609	 0.32042196393013 
1610	 0.320298284292221 
1611	 0.320132791996002 
1612	 0.320013225078583 
1613	 0.319911628961563 
1614	 0.319793820381165 
1615	 0.319687277078629 
1616	 0.319586932659149 
1617	 0.319473922252655 
1618	 0.319380968809128 
1619	 0.319310992956162 
1620	 0.319224834442139 
1621	 0.319145381450653 
1622	 0.319047033786774 
1623	 0.318938553333282 
1624	 0.318817973136902 
1625	 0.318677067756653 
1626	 0.318558633327484 
1627	 0.318442046642303 
1628	 0.318329125642776 
1629	 0.318226844072342 
1630	 0.318097919225693 
1631	 0.317953497171402 
1632	 0.317838400602341 
1633	 0.317721247673035 
1634	 0.317613184452057 
1635	 0.317539811134338 
1636	 0.31742849946022 
1637	 0.317281931638718 
1638	 0.317175567150116 
1639	 0.317073792219162 
1640	 0.316982388496399 
1641	 0.316929787397385 
1642	 0.31684884428978 
1643	 0.316748559474945 
1644	 0.316653668880463 
1645	 0.316555470228195 
1646	 0.316461443901062 
1647	 0.316376656293869 
1648	 0.316280454397202 
1649	 0.316180348396301 
1650	 0.316072672605515 
1651	 0.315953820943832 
1652	 0.315839201211929 
1653	 0.315707564353943 
1654	 0.315601766109467 
1655	 0.315521031618118 
1656	 0.31542906165123 
1657	 0.315349251031876 
1658	 0.31525593996048 
1659	 0.315138816833496 
1660	 0.315029233694077 
1661	 0.314928233623505 
1662	 0.314817696809769 
1663	 0.314694553613663 
1664	 0.314602017402649 
1665	 0.314533740282059 
1666	 0.314438253641129 
1667	 0.314336091279984 
1668	 0.314221829175949 
1669	 0.314068347215652 
1670	 0.313957840204239 
1671	 0.313873529434204 
1672	 0.313749879598618 
1673	 0.313618361949921 
1674	 0.313459813594818 
1675	 0.313290148973465 
1676	 0.313164889812469 
1677	 0.313064604997635 
1678	 0.312950938940048 
1679	 0.312827438116074 
1680	 0.312732338905334 
1681	 0.312647014856339 
1682	 0.312586486339569 
1683	 0.312547773122787 
1684	 0.312468349933624 
1685	 0.312384009361267 
1686	 0.312297612428665 
1687	 0.312198162078857 
1688	 0.312111020088196 
1689	 0.311993211507797 
1690	 0.311888694763184 
1691	 0.311789691448212 
1692	 0.311630040407181 
1693	 0.311495721340179 
1694	 0.311362862586975 
1695	 0.31121239066124 
1696	 0.311140894889832 
1697	 0.311110764741898 
1698	 0.311059564352036 
1699	 0.310997873544693 
1700	 0.310918122529984 
1701	 0.310797989368439 
1702	 0.310678422451019 
1703	 0.310594409704208 
1704	 0.310497790575027 
1705	 0.310392171144485 
1706	 0.310300260782242 
1707	 0.310178428888321 
1708	 0.310050189495087 
1709	 0.3099345266819 
1710	 0.309811949729919 
1711	 0.309698700904846 
1712	 0.309582620859146 
1713	 0.309473991394043 
1714	 0.309371888637543 
1715	 0.309260696172714 
1716	 0.309147000312805 
1717	 0.309036880731583 
1718	 0.30889755487442 
1719	 0.30874440073967 
1720	 0.308634430170059 
1721	 0.308502852916718 
1722	 0.308406621217728 
1723	 0.308365792036057 
1724	 0.308275282382965 
1725	 0.30817922949791 
1726	 0.308072328567505 
1727	 0.30796554684639 
1728	 0.3078872859478 
1729	 0.307776272296906 
1730	 0.307634502649307 
1731	 0.307491064071655 
1732	 0.307321429252625 
1733	 0.307172387838364 
1734	 0.307046055793762 
1735	 0.306904762983322 
1736	 0.306753158569336 
1737	 0.30660754442215 
1738	 0.306459933519363 
1739	 0.306314051151276 
1740	 0.306142389774323 
1741	 0.305970430374146 
1742	 0.305801749229431 
1743	 0.305616140365601 
1744	 0.305483967065811 
1745	 0.305406242609024 
1746	 0.305307865142822 
1747	 0.305208146572113 
1748	 0.305146783590317 
1749	 0.305024832487106 
1750	 0.304868966341019 
1751	 0.304762184619904 
1752	 0.304602235555649 
1753	 0.304442673921585 
1754	 0.304306387901306 
1755	 0.304101824760437 
1756	 0.30389866232872 
1757	 0.303674399852753 
1758	 0.303464740514755 
1759	 0.303322046995163 
1760	 0.303184509277344 
1761	 0.303092807531357 
1762	 0.303017109632492 
1763	 0.302888184785843 
1764	 0.302701741456985 
1765	 0.302544891834259 
1766	 0.302411437034607 
1767	 0.302272439002991 
1768	 0.302169144153595 
1769	 0.30199009180069 
1770	 0.301789909601212 
1771	 0.301646411418915 
1772	 0.301520556211472 
1773	 0.301489919424057 
1774	 0.301469713449478 
1775	 0.301381170749664 
1776	 0.301286518573761 
1777	 0.301077783107758 
1778	 0.300943195819855 
1779	 0.300836354494095 
1780	 0.300757706165314 
1781	 0.300683945417404 
1782	 0.300613522529602 
1783	 0.300525635480881 
1784	 0.300467729568481 
1785	 0.300440073013306 
1786	 0.300370305776596 
1787	 0.300313085317612 
1788	 0.300202399492264 
1789	 0.300067365169525 
1790	 0.299960076808929 
1791	 0.299856394529343 
1792	 0.299781113862991 
1793	 0.299689620733261 
1794	 0.299594014883041 
1795	 0.299476146697998 
1796	 0.299378722906113 
1797	 0.299301356077194 
1798	 0.299224585294724 
1799	 0.299161285161972 
1800	 0.299097448587418 
1801	 0.299072206020355 
1802	 0.298983335494995 
1803	 0.298849016427994 
1804	 0.298687964677811 
1805	 0.298501253128052 
1806	 0.298376649618149 
1807	 0.29826357960701 
1808	 0.29811105132103 
1809	 0.297949492931366 
1810	 0.297793656587601 
1811	 0.297622382640839 
1812	 0.297472238540649 
1813	 0.297304660081863 
1814	 0.297176718711853 
1815	 0.297032088041306 
1816	 0.296845048666 
1817	 0.296676307916641 
1818	 0.296528548002243 
1819	 0.296374678611755 
1820	 0.296259433031082 
1821	 0.296147674322128 
1822	 0.295955300331116 
1823	 0.295775085687637 
1824	 0.295595318078995 
1825	 0.29535984992981 
1826	 0.295148819684982 
1827	 0.294933348894119 
1828	 0.294662922620773 
1829	 0.294402599334717 
1830	 0.294151782989502 
1831	 0.302244037389755 
1832	 0.30209031701088 
1833	 0.301881492137909 
1834	 0.30158320069313 
1835	 0.301373213529587 
1836	 0.301140606403351 
1837	 0.300955533981323 
1838	 0.300837218761444 
1839	 0.300727427005768 
1840	 0.300535380840302 
1841	 0.300325930118561 
1842	 0.300172388553619 
1843	 0.300035744905472 
1844	 0.299926996231079 
1845	 0.29988968372345 
1846	 0.299851059913635 
1847	 0.29981005191803 
1848	 0.299811184406281 
1849	 0.299811273813248 
1850	 0.299700289964676 
1851	 0.299590528011322 
1852	 0.299581706523895 
1853	 0.29957902431488 
1854	 0.299649566411972 
1855	 0.299673229455948 
1856	 0.299685925245285 
1857	 0.299656897783279 
1858	 0.29959961771965 
1859	 0.29954594373703 
1860	 0.299480050802231 
1861	 0.299376547336578 
1862	 0.299184650182724 
1863	 0.299037963151932 
1864	 0.298885643482208 
1865	 0.298736244440079 
1866	 0.298578083515167 
1867	 0.298436164855957 
1868	 0.298259168863297 
1869	 0.298115104436874 
1870	 0.29790011048317 
1871	 0.297635167837143 
1872	 0.297399878501892 
1873	 0.297101527452469 
1874	 0.296712428331375 
1875	 0.296329140663147 
1876	 0.295967668294907 
1877	 0.295522749423981 
1878	 0.295001953840256 
1879	 0.294467777013779 
1880	 0.293959081172943 
1881	 0.293390482664108 
1882	 0.292788654565811 
1883	 0.292140483856201 
1884	 0.291425079107285 
1885	 0.290731161832809 
1886	 0.289981842041016 
1887	 0.289301663637161 
1888	 0.28859356045723 
1889	 0.287946045398712 
1890	 0.287064760923386 
1891	 0.286203503608704 
1892	 0.285338193178177 
1893	 0.284378409385681 
1894	 0.283503174781799 
1895	 0.282658725976944 
1896	 0.281774610280991 
1897	 0.280783832073212 
1898	 0.279767632484436 
1899	 0.278823107481003 
1900	 0.277869671583176 
1901	 0.276931822299957 
1902	 0.276070803403854 
1903	 0.275235593318939 
1904	 0.274409770965576 
1905	 0.273596346378326 
1906	 0.272898077964783 
1907	 0.272328585386276 
1908	 0.271692931652069 
1909	 0.271115958690643 
1910	 0.270637542009354 
1911	 0.270216196775436 
1912	 0.269808769226074 
1913	 0.269532084465027 
1914	 0.269278883934021 
1915	 0.269033163785934 
1916	 0.26885786652565 
1917	 0.268702566623688 
1918	 0.26861047744751 
1919	 0.2685467004776 
1920	 0.268427342176437 
1921	 0.268311589956284 
1922	 0.268176466226578 
1923	 0.268010646104813 
1924	 0.267824351787567 
1925	 0.267712533473969 
1926	 0.267631858587265 
1927	 0.267618447542191 
1928	 0.267613291740417 
1929	 0.267551988363266 
1930	 0.267423421144485 
1931	 0.267226934432983 
1932	 0.267080217599869 
1933	 0.267013609409332 
1934	 0.266982853412628 
1935	 0.267031818628311 
1936	 0.267143696546555 
1937	 0.267215639352798 
1938	 0.267216742038727 
1939	 0.267176777124405 
1940	 0.26709195971489 
1941	 0.267045587301254 
1942	 0.267107009887695 
1943	 0.267124652862549 
1944	 0.267130374908447 
1945	 0.26718270778656 
1946	 0.2671839594841 
1947	 0.267102658748627 
1948	 0.2671038210392 
1949	 0.267091274261475 
1950	 0.267032265663147 
1951	 0.267027229070663 
1952	 0.267029315233231 
1953	 0.267092615365982 
1954	 0.26717147231102 
1955	 0.267187386751175 
1956	 0.267168015241623 
1957	 0.267138093709946 
1958	 0.267019748687744 
1959	 0.267016857862473 
1960	 0.267084151506424 
1961	 0.267071932554245 
1962	 0.267151117324829 
1963	 0.267262041568756 
1964	 0.267248928546906 
1965	 0.267280876636505 
1966	 0.267364203929901 
1967	 0.2674320936203 
1968	 0.26750585436821 
1969	 0.267652124166489 
1970	 0.267729640007019 
1971	 0.267732620239258 
1972	 0.267766118049622 
1973	 0.267789334058762 
1974	 0.267843186855316 
1975	 0.267860412597656 
1976	 0.267922699451447 
1977	 0.26802060008049 
1978	 0.268081873655319 
1979	 0.268148183822632 
1980	 0.268235832452774 
1981	 0.268330216407776 
1982	 0.268425077199936 
1983	 0.268505126237869 
1984	 0.268597394227982 
1985	 0.268677800893784 
1986	 0.268735527992249 
1987	 0.268765419721603 
1988	 0.268841475248337 
1989	 0.268992602825165 
1990	 0.26912733912468 
1991	 0.269241571426392 
1992	 0.269374340772629 
1993	 0.269472450017929 
1994	 0.269557356834412 
1995	 0.269616991281509 
1996	 0.269716918468475 
1997	 0.26979985833168 
1998	 0.269904255867004 
1999	 0.270056068897247 
2000	 0.270170360803604 
2001	 0.270277410745621 
2002	 0.270413249731064 
2003	 0.27049994468689 
2004	 0.270574748516083 
2005	 0.270709335803986 
2006	 0.270782649517059 
2007	 0.270878374576569 
2008	 0.271055996417999 
2009	 0.271118015050888 
2010	 0.271052747964859 
2011	 0.271119564771652 
2012	 0.271210104227066 
2013	 0.271270990371704 
2014	 0.271430879831314 
2015	 0.271563500165939 
2016	 0.271633118391037 
2017	 0.271741539239883 
2018	 0.271794021129608 
2019	 0.271807879209518 
2020	 0.271867752075195 
2021	 0.271923005580902 
2022	 0.271964758634567 
2023	 0.27206015586853 
2024	 0.272094398736954 
2025	 0.272033214569092 
2026	 0.272026419639587 
2027	 0.272004783153534 
2028	 0.272082358598709 
2029	 0.272038400173187 
2030	 0.272011339664459 
2031	 0.272133886814117 
2032	 0.272126048803329 
2033	 0.272060662508011 
2034	 0.272188872098923 
2035	 0.272246390581131 
2036	 0.272209942340851 
2037	 0.272201478481293 
2038	 0.272285610437393 
2039	 0.272271662950516 
2040	 0.272146999835968 
2041	 0.272094070911407 
2042	 0.272045433521271 
2043	 0.272005915641785 
2044	 0.272070169448853 
2045	 0.272152334451675 
2046	 0.272193998098373 
2047	 0.27223464846611 
2048	 0.272205531597137 
2049	 0.272026717662811 
2050	 0.271967023611069 
2051	 0.271945357322693 
2052	 0.271918535232544 
2053	 0.271933913230896 
2054	 0.271941781044006 
2055	 0.272000372409821 
2056	 0.271943211555481 
2057	 0.271807879209518 
2058	 0.271679699420929 
2059	 0.271625816822052 
2060	 0.271527826786041 
2061	 0.271515160799026 
2062	 0.271538257598877 
2063	 0.271414160728455 
2064	 0.271343380212784 
2065	 0.271258473396301 
2066	 0.271198004484177 
2067	 0.27106586098671 
2068	 0.270854711532593 
2069	 0.270722448825836 
2070	 0.270665735006332 
2071	 0.270512402057648 
2072	 0.270368129014969 
2073	 0.270158618688583 
2074	 0.269888788461685 
2075	 0.269579321146011 
2076	 0.269368886947632 
2077	 0.269145309925079 
2078	 0.268775880336761 
2079	 0.268380016088486 
2080	 0.26804107427597 
2081	 0.267704278230667 
2082	 0.267301380634308 
2083	 0.2669577896595 
2084	 0.266499817371368 
2085	 0.265897244215012 
2086	 0.26533979177475 
2087	 0.264836400747299 
2088	 0.264202892780304 
2089	 0.263501435518265 
2090	 0.262702703475952 
2091	 0.261948108673096 
2092	 0.26121124625206 
2093	 0.260509371757507 
2094	 0.259768694639206 
2095	 0.258895725011826 
2096	 0.257944494485855 
2097	 0.257101863622665 
2098	 0.256297290325165 
2099	 0.255479723215103 
2100	 0.254697620868683 
2101	 0.253928452730179 
2102	 0.253096282482147 
2103	 0.252337962388992 
2104	 0.251666963100433 
2105	 0.250991314649582 
2106	 0.250315368175507 
2107	 0.249711185693741 
2108	 0.249084770679474 
2109	 0.248471185564995 
2110	 0.24791556596756 
2111	 0.247314393520355 
2112	 0.246786743402481 
2113	 0.246319144964218 
2114	 0.245843693614006 
2115	 0.245374441146851 
2116	 0.244982674717903 
2117	 0.244614273309708 
2118	 0.244274780154228 
2119	 0.243963032960892 
2120	 0.243763819336891 
2121	 0.243639409542084 
2122	 0.243540912866592 
2123	 0.24356447160244 
2124	 0.24354787170887 
2125	 0.243495061993599 
2126	 0.243524834513664 
2127	 0.243567585945129 
2128	 0.243619561195374 
2129	 0.243575230240822 
2130	 0.243450716137886 
2131	 0.243430584669113 
2132	 0.243417412042618 
2133	 0.243361815810204 
2134	 0.243390768766403 
2135	 0.243316948413849 
2136	 0.243162274360657 
2137	 0.242933124303818 
2138	 0.242695689201355 
2139	 0.242346957325935 
2140	 0.241843268275261 
2141	 0.241367787122726 
2142	 0.240871548652649 
2143	 0.24029752612114 
2144	 0.239723801612854 
2145	 0.239021211862564 
2146	 0.238174214959145 
2147	 0.237302348017693 
2148	 0.236331135034561 
2149	 0.23539961874485 
2150	 0.234404996037483 
2151	 0.233359113335609 
2152	 0.232269376516342 
2153	 0.231111362576485 
2154	 0.229879006743431 
2155	 0.228633254766464 
2156	 0.227256044745445 
2157	 0.225791826844215 
2158	 0.224230334162712 
2159	 0.222572609782219 
2160	 0.220830827951431 
2161	 0.219010889530182 
2162	 0.21703477203846 
2163	 0.214929640293121 
2164	 0.21274396777153 
2165	 0.21041251718998 
2166	 0.208056598901749 
2167	 0.205596536397934 
2168	 0.202976673841476 
2169	 0.20024174451828 
2170	 0.19733402132988 
2171	 0.194309070706367 
2172	 0.191175132989883 
2173	 0.187954530119896 
2174	 0.184583783149719 
2175	 0.181174799799919 
2176	 0.177678063511848 
2177	 0.174168407917023 
2178	 0.170535176992416 
2179	 0.166923657059669 
2180	 0.163245320320129 
2181	 0.159675985574722 
2182	 0.156069070100784 
2183	 0.152624756097794 
2184	 0.149251788854599 
2185	 0.145984560251236 
2186	 0.142740473151207 
2187	 0.139756873250008 
2188	 0.136929124593735 
2189	 0.134280398488045 
2190	 0.131908640265465 
2191	 0.129712730646133 
2192	 0.12770488858223 
2193	 0.12605719268322 
2194	 0.124677814543247 
2195	 0.123476341366768 
2196	 0.122584044933319 
2197	 0.122051164507866 
2198	 0.121644146740437 
2199	 0.121442675590515 
2200	 0.12149266153574 
2201	 0.121814452111721 
2202	 0.122262917459011 
2203	 0.122901722788811 
2204	 0.123835735023022 
2205	 0.125041380524635 
2206	 0.126307383179665 
2207	 0.127837255597115 
2208	 0.129470989108086 
2209	 0.131164103746414 
2210	 0.133015260100365 
2211	 0.135042011737823 
2212	 0.137275025248528 
2213	 0.139439463615417 
2214	 0.141757413744926 
2215	 0.144286289811134 
2216	 0.146690100431442 
2217	 0.149259954690933 
2218	 0.151946201920509 
2219	 0.154390394687653 
2220	 0.156885161995888 
2221	 0.159326016902924 
2222	 0.161526024341583 
2223	 0.163740813732147 
2224	 0.165940269827843 
2225	 0.168011322617531 
2226	 0.170031666755676 
2227	 0.171876475214958 
2228	 0.173598915338516 
2229	 0.175236776471138 
2230	 0.176614239811897 
2231	 0.178119748830795 
2232	 0.179730832576752 
2233	 0.181097269058228 
2234	 0.182377740740776 
2235	 0.183615475893021 
2236	 0.184658601880074 
2237	 0.185676664113998 
2238	 0.186686128377914 
2239	 0.187636375427246 
2240	 0.188457041978836 
2241	 0.189282298088074 
2242	 0.190060585737228 
2243	 0.190957814455032 
2244	 0.191878572106361 
2245	 0.192603766918182 
2246	 0.193274304270744 
2247	 0.193888038396835 
2248	 0.194447219371796 
2249	 0.195090964436531 
2250	 0.195742696523666 
2251	 0.196263536810875 
2252	 0.196738094091415 
2253	 0.197038874030113 
2254	 0.197524711489677 
2255	 0.198105722665787 
2256	 0.19858780503273 
2257	 0.199141964316368 
2258	 0.199525743722916 
2259	 0.199691012501717 
2260	 0.200000941753387 
2261	 0.200345739722252 
2262	 0.200659707188606 
2263	 0.2010857462883 
2264	 0.201351076364517 
2265	 0.201388195157051 
2266	 0.201589718461037 
2267	 0.201926082372665 
2268	 0.202040523290634 
2269	 0.202056169509888 
2270	 0.202186092734337 
2271	 0.202288389205933 
2272	 0.202251210808754 
2273	 0.202284201979637 
2274	 0.202292591333389 
2275	 0.202223122119904 
2276	 0.201935023069382 
2277	 0.20157590508461 
2278	 0.201518848538399 
2279	 0.201406016945839 
2280	 0.201023131608963 
2281	 0.200784146785736 
2282	 0.200616702437401 
2283	 0.200221315026283 
2284	 0.199809908866882 
2285	 0.199395194649696 
2286	 0.198722764849663 
2287	 0.198031485080719 
2288	 0.197483047842979 
2289	 0.196883589029312 
2290	 0.196299120783806 
2291	 0.195658728480339 
2292	 0.194986388087273 
2293	 0.19421149790287 
2294	 0.193426951766014 
2295	 0.19248341023922 
2296	 0.191329032182693 
2297	 0.19026443362236 
2298	 0.189172253012657 
2299	 0.188060656189919 
2300	 0.186954155564308 
2301	 0.185804948210716 
2302	 0.184562802314758 
2303	 0.183392077684402 
2304	 0.182331904768944 
2305	 0.181114956736565 
2306	 0.179783865809441 
2307	 0.178512528538704 
2308	 0.177251264452934 
2309	 0.175833985209465 
2310	 0.17429219186306 
2311	 0.172941088676453 
2312	 0.171473428606987 
2313	 0.170120283961296 
2314	 0.16918620467186 
2315	 0.167926758527756 
2316	 0.166430249810219 
2317	 0.165021911263466 
2318	 0.163610085844994 
2319	 0.162135541439056 
2320	 0.160844415426254 
2321	 0.159525841474533 
2322	 0.158085852861404 
2323	 0.156666144728661 
2324	 0.155262753367424 
2325	 0.15389147400856 
2326	 0.152559280395508 
2327	 0.151177257299423 
2328	 0.149793952703476 
2329	 0.148394346237183 
2330	 0.147051155567169 
2331	 0.145975708961487 
2332	 0.144797191023827 
2333	 0.143558904528618 
2334	 0.142614021897316 
2335	 0.141596332192421 
2336	 0.140484198927879 
2337	 0.139547258615494 
2338	 0.138529241085052 
2339	 0.137433096766472 
2340	 0.136645942926407 
2341	 0.135982349514961 
2342	 0.135293141007423 
2343	 0.134799405932426 
2344	 0.134358406066895 
2345	 0.133907496929169 
2346	 0.133818462491035 
2347	 0.133696496486664 
2348	 0.133353397250175 
2349	 0.133404836058617 
2350	 0.133381575345993 
2351	 0.133185610175133 
2352	 0.133258759975433 
2353	 0.133548721671104 
2354	 0.133911639451981 
2355	 0.134393468499184 
2356	 0.134979903697968 
2357	 0.1358412951231 
2358	 0.136324420571327 
2359	 0.136717677116394 
2360	 0.13717357814312 
2361	 0.137499541044235 
2362	 0.137840121984482 
2363	 0.1383376121521 
2364	 0.138444513082504 
2365	 0.138133689761162 
2366	 0.138249576091766 
2367	 0.138374462723732 
2368	 0.138616353273392 
2369	 0.139258652925491 
2370	 0.139453813433647 
2371	 0.139397263526917 
2372	 0.139477446675301 
2373	 0.139491721987724 
2374	 0.139423161745071 
2375	 0.139366060495377 
2376	 0.139236718416214 
2377	 0.138856381177902 
2378	 0.138795301318169 
2379	 0.139006316661835 
2380	 0.138944551348686 
2381	 0.138923794031143 
2382	 0.138735800981522 
2383	 0.138049826025963 
2384	 0.138048231601715 
2385	 0.138476952910423 
2386	 0.138558223843575 
2387	 0.138958230614662 
2388	 0.13900500535965 
2389	 0.138523727655411 
2390	 0.138426676392555 
2391	 0.1385547965765 
2392	 0.138395577669144 
2393	 0.13817948102951 
2394	 0.137865379452705 
2395	 0.137195780873299 
2396	 0.136872127652168 
2397	 0.136861085891724 
2398	 0.136661186814308 
2399	 0.136481866240501 
2400	 0.136267736554146 
2401	 0.135996088385582 
2402	 0.135442987084389 
2403	 0.134649053215981 
2404	 0.134220227599144 
2405	 0.133713290095329 
2406	 0.13327419757843 
2407	 0.133380502462387 
2408	 0.132815033197403 
2409	 0.131657466292381 
2410	 0.131006866693497 
2411	 0.13043749332428 
2412	 0.129697725176811 
2413	 0.129083767533302 
2414	 0.128409326076508 
2415	 0.127349510788918 
2416	 0.126705139875412 
2417	 0.126527339220047 
2418	 0.125970751047134 
2419	 0.125246912240982 
2420	 0.12468247115612 
2421	 0.124255046248436 
2422	 0.123443424701691 
2423	 0.122379437088966 
2424	 0.121744394302368 
2425	 0.120884098112583 
2426	 0.120311908423901 
2427	 0.120541542768478 
2428	 0.120048187673092 
2429	 0.119029141962528 
2430	 0.118462547659874 
2431	 0.11786562204361 
2432	 0.117326974868774 
2433	 0.116945646703243 
2434	 0.116699256002903 
2435	 0.116560764610767 
2436	 0.11629780381918 
2437	 0.116267986595631 
2438	 0.116027534008026 
2439	 0.115319430828094 
2440	 0.115167729556561 
2441	 0.11528641730547 
2442	 0.115485049784184 
2443	 0.116042330861092 
2444	 0.116223767399788 
2445	 0.116292506456375 
2446	 0.116420343518257 
2447	 0.116438664495945 
2448	 0.116683214902878 
2449	 0.117091454565525 
2450	 0.117321714758873 
2451	 0.117456868290901 
2452	 0.117727518081665 
2453	 0.118181020021439 
2454	 0.118051819503307 
2455	 0.118106007575989 
2456	 0.118321530520916 
2457	 0.118009194731712 
2458	 0.118592701852322 
2459	 0.119576029479504 
2460	 0.119949363172054 
2461	 0.120166093111038 
2462	 0.120437361299992 
2463	 0.12035620957613 
2464	 0.12032038718462 
2465	 0.120506554841995 
2466	 0.120563738048077 
2467	 0.120817743241787 
2468	 0.121633537113667 
2469	 0.12214145809412 
2470	 0.122540138661861 
2471	 0.122852325439453 
2472	 0.122976094484329 
2473	 0.123089246451855 
2474	 0.123193144798279 
2475	 0.12321138381958 
2476	 0.122923485934734 
2477	 0.122951909899712 
2478	 0.123061850667 
2479	 0.123281687498093 
2480	 0.123989954590797 
2481	 0.124285399913788 
2482	 0.124322585761547 
2483	 0.124495483934879 
2484	 0.124608799815178 
2485	 0.124607861042023 
2486	 0.124489538371563 
2487	 0.124640986323357 
2488	 0.12484285980463 
2489	 0.12494046241045 
2490	 0.125161096453667 
2491	 0.125533282756805 
2492	 0.125882342457771 
2493	 0.126109629869461 
2494	 0.126729115843773 
2495	 0.12679398059845 
2496	 0.126073643565178 
2497	 0.126118779182434 
2498	 0.126471757888794 
2499	 0.126573652029037 
2500	 0.126760840415955 
