
Text conversion of header file \A_MEDIDAS\PROJETOS\BRASIL\BLOCO GAVIAO\JACOBINA\CANIF27\sco\CANIF27_018.45_00003.asd.ref
 -------------------------------------------------------------
Falhada                                                                                                                                                     
The instrument number was  16586/1
New ASD spectrum file: Program version = 6.00 file version = 1.00
Spectrum saved: 10/16/2018 at 10:04:03
VNIR integration time : 34
VNIR channel 1 wavelength = 350 wavelength step = 1
There were 50 samples per data value
xmin = 350 xmax= 2500
ymin= 0 ymax= 1.25
The instrument digitizes spectral values to 16 bits
SWIR1 gain was 214 offset was 2097
SWIR2 gain was 513 offset was 2267
Join between VNIR and SWIR1 was 1000 nm
Join between SWIR1 and SWIR2 was 1830 nm
Absolute Reflectance is Enabled
The Absolute Reflectance File is abs165861.ref
VNIR dark signal subtracted
50 dark measurements taken Tue Oct 16 09:52:54 2018
DCC value was 0
Data is compared to a white reference:
60 white reference measurements taken Tue Oct 16 09:53:02 2018
There was no foreoptic attached
Spectrum file is reflectance data
GPS-Latitude is S0
GPS-Longitude is E0
GPS-Altitude is 0
GPS-UTC is Wed Dec 31 17:00:00 1969

Smart Detector
Serial#  0
Signal (A)  0.000E00
Dark (A)  0.000E00
Ref (A)  0.000E00
Status  0 - Uninitialized
Gain  E-4
Averaging  0
Temp (C)  0.0
Humid (%)  0.0

Reflectance Absolute
Wavelength	CANIF27_18.45_00003.asd.ref
350	 7.39243924617767E-02 
351	 7.21657872200012E-02 
352	 7.22503811120987E-02 
353	 7.40921050310135E-02 
354	 7.53622129559517E-02 
355	 7.08682611584663E-02 
356	 7.99532383680344E-02 
357	 8.46044719219208E-02 
358	 0.067855566740036 
359	 6.88768550753593E-02 
360	 7.29951485991478E-02 
361	 7.38499686121941E-02 
362	 7.25841447710991E-02 
363	 6.68246522545815E-02 
364	 6.84387311339378E-02 
365	 7.76599422097206E-02 
366	 7.75887668132782E-02 
367	 7.17712715268135E-02 
368	 0.06854547560215 
369	 7.25854933261871E-02 
370	 7.51184746623039E-02 
371	 7.67136365175247E-02 
372	 7.64812231063843E-02 
373	 7.36135318875313E-02 
374	 7.12030604481697E-02 
375	 7.25558921694756E-02 
376	 7.56688565015793E-02 
377	 7.37785398960114E-02 
378	 7.37821236252785E-02 
379	 7.52329304814339E-02 
380	 7.62287229299545E-02 
381	 7.45954886078835E-02 
382	 7.38439485430717E-02 
383	 7.39878192543983E-02 
384	 7.40551576018333E-02 
385	 7.56219178438187E-02 
386	 7.74086713790894E-02 
387	 7.83613473176956E-02 
388	 7.79129192233086E-02 
389	 7.77554512023926E-02 
390	 7.79847502708435E-02 
391	 7.82588049769402E-02 
392	 7.79178515076637E-02 
393	 7.79966711997986E-02 
394	 7.81216248869896E-02 
395	 7.76934921741486E-02 
396	 7.71142393350601E-02 
397	 7.83103704452515E-02 
398	 8.00582468509674E-02 
399	 7.91419073939323E-02 
400	 7.93912932276726E-02 
401	 7.92558491230011E-02 
402	 7.83655047416687E-02 
403	 7.98529908061028E-02 
404	 7.98278152942657E-02 
405	 7.94761702418327E-02 
406	 0.080443911254406 
407	 7.98138231039047E-02 
408	 7.99161568284035E-02 
409	 8.07448998093605E-02 
410	 8.07251259684563E-02 
411	 0.08042261749506 
412	 0.080330915749073 
413	 8.07140171527863E-02 
414	 8.15479904413223E-02 
415	 8.14832597970963E-02 
416	 8.10806080698967E-02 
417	 8.12116414308548E-02 
418	 8.17732587456703E-02 
419	 8.21641385555267E-02 
420	 8.24648588895798E-02 
421	 8.30991864204407E-02 
422	 8.33437591791153E-02 
423	 8.33002179861069E-02 
424	 8.32034945487976E-02 
425	 8.32933560013771E-02 
426	 8.40809121727943E-02 
427	 8.46421495079994E-02 
428	 8.43092203140259E-02 
429	 8.46025422215462E-02 
430	 0.085139274597168 
431	 8.55264961719513E-02 
432	 8.54898616671562E-02 
433	 8.56346860527992E-02 
434	 8.61351415514946E-02 
435	 8.67503061890602E-02 
436	 8.67211222648621E-02 
437	 0.086736761033535 
438	 8.72330665588379E-02 
439	 8.82019102573395E-02 
440	 8.83845239877701E-02 
441	 8.86501595377922E-02 
442	 8.89140740036964E-02 
443	 8.85772928595543E-02 
444	 8.88170301914215E-02 
445	 8.91845747828484E-02 
446	 0.089343436062336 
447	 8.94763618707657E-02 
448	 8.96507129073143E-02 
449	 8.98302718997002E-02 
450	 8.99335220456123E-02 
451	 8.98161232471466E-02 
452	 8.99057984352112E-02 
453	 0.090166449546814 
454	 9.02369096875191E-02 
455	 9.03924256563187E-02 
456	 9.04146805405617E-02 
457	 9.03195738792419E-02 
458	 0.090725377202034 
459	 9.08821299672127E-02 
460	 9.08403322100639E-02 
461	 9.09103378653526E-02 
462	 9.12821739912033E-02 
463	 9.15098488330841E-02 
464	 9.15463343262672E-02 
465	 9.17074903845787E-02 
466	 0.09181909263134 
467	 9.19685214757919E-02 
468	 9.21598896384239E-02 
469	 9.20826569199562E-02 
470	 9.22029390931129E-02 
471	 9.24450978636742E-02 
472	 9.25605669617653E-02 
473	 9.26773175597191E-02 
474	 9.28667038679123E-02 
475	 9.30763706564903E-02 
476	 9.31359678506851E-02 
477	 9.33312773704529E-02 
478	 9.35787633061409E-02 
479	 9.37351658940315E-02 
480	 9.36781540513039E-02 
481	 9.38988775014877E-02 
482	 9.42623093724251E-02 
483	 9.43789705634117E-02 
484	 9.45682302117348E-02 
485	 0.094805046916008 
486	 9.50364321470261E-02 
487	 9.52155292034149E-02 
488	 9.54416915774345E-02 
489	 9.56893712282181E-02 
490	 0.095892071723938 
491	 9.59582105278969E-02 
492	 9.60276052355766E-02 
493	 9.61013957858086E-02 
494	 9.61097851395607E-02 
495	 9.62417423725128E-02 
496	 9.63770970702171E-02 
497	 9.64812114834785E-02 
498	 9.67314392328262E-02 
499	 9.69588831067085E-02 
500	 9.71501693129539E-02 
501	 9.73472073674202E-02 
502	 9.76113304495811E-02 
503	 9.78442132472992E-02 
504	 9.80011150240898E-02 
505	 9.81020703911781E-02 
506	 0.098380409181118 
507	 9.85976606607437E-02 
508	 9.86443310976028E-02 
509	 9.88575890660286E-02 
510	 9.89644229412079E-02 
511	 9.89786311984062E-02 
512	 9.90320891141891E-02 
513	 9.92884114384651E-02 
514	 0.099500298500061 
515	 9.96029227972031E-02 
516	 9.97394025325775E-02 
517	 9.98075231909752E-02 
518	 9.98399034142494E-02 
519	 9.99008342623711E-02 
520	 0.100072458386421 
521	 0.100252546370029 
522	 0.100360490381718 
523	 0.100362971425056 
524	 0.100464381277561 
525	 0.100554622709751 
526	 0.100610174238682 
527	 0.100757777690887 
528	 0.100745312869549 
529	 0.10071786493063 
530	 0.100817710161209 
531	 0.100819408893585 
532	 0.100878044962883 
533	 0.100979916751385 
534	 0.101013407111168 
535	 0.10105187445879 
536	 0.101157873868942 
537	 0.101304344832897 
538	 0.101312816143036 
539	 0.10135293006897 
540	 0.101436458528042 
541	 0.101525314152241 
542	 0.101591311395168 
543	 0.101693674921989 
544	 0.101827554404736 
545	 0.101931907236576 
546	 0.101970307528973 
547	 0.102045506238937 
548	 0.102192729711533 
549	 0.102246686816216 
550	 0.102294228971004 
551	 0.102373525500298 
552	 0.10249350219965 
553	 0.102601006627083 
554	 0.102686993777752 
555	 0.102759644389153 
556	 0.102841041982174 
557	 0.102921582758427 
558	 0.102970823645592 
559	 0.102998480200768 
560	 0.103138662874699 
561	 0.103306479752064 
562	 0.10341139882803 
563	 0.103393018245697 
564	 0.103429235517979 
565	 0.103543490171432 
566	 0.103690296411514 
567	 0.103756606578827 
568	 0.103750556707382 
569	 0.103744372725487 
570	 0.103783942759037 
571	 0.103739336133003 
572	 0.103697195649147 
573	 0.103704504668713 
574	 0.10377536714077 
575	 0.103931106626987 
576	 0.104097411036491 
577	 0.104211449623108 
578	 0.104257933795452 
579	 0.104257680475712 
580	 0.104227878153324 
581	 0.104198798537254 
582	 0.104264110326767 
583	 0.10432755947113 
584	 0.10431781411171 
585	 0.104202508926392 
586	 0.104087516665459 
587	 0.103938356041908 
588	 0.103789053857327 
589	 0.103907570242882 
590	 0.103989146649837 
591	 0.103982850909233 
592	 0.103935994207859 
593	 0.103810325264931 
594	 0.103724353015423 
595	 0.103695467114449 
596	 0.103624053299427 
597	 0.103583723306656 
598	 0.103532657027245 
599	 0.103421702980995 
600	 0.103239916265011 
601	 0.103058323264122 
602	 0.102910749614239 
603	 0.102796241641045 
604	 0.102634079754353 
605	 0.102504760026932 
606	 0.10242698341608 
607	 0.102319970726967 
608	 0.10221041738987 
609	 0.102080762386322 
610	 0.101924255490303 
611	 0.101795002818108 
612	 0.101677387952805 
613	 0.101547628641129 
614	 0.101385451853275 
615	 0.101244650781155 
616	 0.101135827600956 
617	 0.101036630570889 
618	 0.100883267819881 
619	 0.100722827017307 
620	 0.100573934614658 
621	 0.100437581539154 
622	 0.100265562534332 
623	 0.100175507366657 
624	 0.100113093852997 
625	 9.99232530593872E-02 
626	 9.97690930962563E-02 
627	 9.96247157454491E-02 
628	 9.94705930352211E-02 
629	 9.93457064032555E-02 
630	 0.099207229912281 
631	 9.90481749176979E-02 
632	 9.88819971680641E-02 
633	 9.87594872713089E-02 
634	 9.86220389604568E-02 
635	 9.84640568494797E-02 
636	 9.83232259750366E-02 
637	 9.82026383280754E-02 
638	 9.80742275714874E-02 
639	 9.79258269071579E-02 
640	 9.77827236056328E-02 
641	 9.76446866989136E-02 
642	 0.097529299557209 
643	 0.097439169883728 
644	 9.72903817892075E-02 
645	 0.097138300538063 
646	 9.70063209533691E-02 
647	 9.68857780098915E-02 
648	 9.67566296458244E-02 
649	 9.66289341449738E-02 
650	 9.65037196874619E-02 
651	 9.63506177067757E-02 
652	 9.62404310703278E-02 
653	 9.61507558822632E-02 
654	 9.60363671183586E-02 
655	 9.59091484546661E-02 
656	 9.57939773797989E-02 
657	 9.56844687461853E-02 
658	 9.55514833331108E-02 
659	 9.54195931553841E-02 
660	 9.53171327710152E-02 
661	 0.095219187438488 
662	 9.49921756982803E-02 
663	 9.48918461799622E-02 
664	 9.48377028107643E-02 
665	 0.094696544110775 
666	 9.46267917752266E-02 
667	 9.45249944925308E-02 
668	 9.43945720791817E-02 
669	 9.43172350525856E-02 
670	 9.42391008138657E-02 
671	 0.094132237136364 
672	 0.093997597694397 
673	 9.38754677772522E-02 
674	 9.38007012009621E-02 
675	 9.37412530183792E-02 
676	 9.36584398150444E-02 
677	 9.35793295502663E-02 
678	 0.093504786491394 
679	 9.34133902192116E-02 
680	 9.32827293872833E-02 
681	 0.093217559158802 
682	 9.31671261787415E-02 
683	 9.30908918380737E-02 
684	 9.29927080869675E-02 
685	 9.29083004593849E-02 
686	 9.28298011422157E-02 
687	 9.27461981773376E-02 
688	 0.092679388821125 
689	 9.26041081547737E-02 
690	 9.25169661641121E-02 
691	 9.24339070916176E-02 
692	 9.24156755208969E-02 
693	 9.23672765493393E-02 
694	 9.22751575708389E-02 
695	 9.22354385256767E-02 
696	 9.21643748879433E-02 
697	 9.21066775918007E-02 
698	 9.20900106430054E-02 
699	 9.20328497886658E-02 
700	 9.19387862086296E-02 
701	 9.18662846088409E-02 
702	 9.18707698583603E-02 
703	 9.18560996651649E-02 
704	 9.18199867010117E-02 
705	 9.17833968997002E-02 
706	 9.17784422636032E-02 
707	 9.17604863643646E-02 
708	 9.17294919490814E-02 
709	 9.16966572403908E-02 
710	 9.16793867945671E-02 
711	 9.16587337851524E-02 
712	 9.16546136140823E-02 
713	 9.16764065623283E-02 
714	 9.16502103209496E-02 
715	 9.16217193007469E-02 
716	 9.16023701429367E-02 
717	 0.091581679880619 
718	 9.15697813034058E-02 
719	 9.15595889091492E-02 
720	 9.15564894676209E-02 
721	 9.15820673108101E-02 
722	 9.15888249874115E-02 
723	 9.16175171732903E-02 
724	 9.16785150766373E-02 
725	 9.16533097624779E-02 
726	 9.16410312056541E-02 
727	 9.16531905531883E-02 
728	 9.16717723011971E-02 
729	 9.17170494794846E-02 
730	 9.17412266135216E-02 
731	 9.17458906769753E-02 
732	 9.17716547846794E-02 
733	 9.18068215250969E-02 
734	 9.18427184224129E-02 
735	 9.18752998113632E-02 
736	 9.19071063399315E-02 
737	 9.19708237051964E-02 
738	 9.20224636793137E-02 
739	 9.20231565833092E-02 
740	 9.19988974928856E-02 
741	 9.20136049389839E-02 
742	 9.20621678233147E-02 
743	 9.21080112457275E-02 
744	 9.21431556344032E-02 
745	 9.21783372759819E-02 
746	 9.22209471464157E-02 
747	 9.22727361321449E-02 
748	 0.092327393591404 
749	 9.23440828919411E-02 
750	 9.23458933830261E-02 
751	 9.24555435776711E-02 
752	 9.25358161330223E-02 
753	 9.25769582390785E-02 
754	 9.26026701927185E-02 
755	 9.26287546753883E-02 
756	 9.26716476678848E-02 
757	 9.27442535758018E-02 
758	 9.28397700190544E-02 
759	 9.28738042712212E-02 
760	 9.29226875305176E-02 
761	 9.29961651563644E-02 
762	 9.30502712726593E-02 
763	 9.31040570139885E-02 
764	 9.31635424494743E-02 
765	 9.32186394929886E-02 
766	 9.32422652840614E-02 
767	 9.32631269097328E-02 
768	 9.33179706335068E-02 
769	 9.34068858623505E-02 
770	 9.34442952275276E-02 
771	 9.35112908482552E-02 
772	 9.35872793197632E-02 
773	 9.36298742890358E-02 
774	 9.36478674411774E-02 
775	 9.36798304319382E-02 
776	 9.37256440520287E-02 
777	 9.37625840306282E-02 
778	 9.37812402844429E-02 
779	 9.38272848725319E-02 
780	 9.38934311270714E-02 
781	 9.39231961965561E-02 
782	 9.39310267567635E-02 
783	 9.39613655209541E-02 
784	 9.40151438117027E-02 
785	 9.40247103571892E-02 
786	 9.40322875976563E-02 
787	 9.40378755331039E-02 
788	 9.40397456288338E-02 
789	 9.40553098917007E-02 
790	 9.40702557563782E-02 
791	 9.40683409571648E-02 
792	 0.094048336148262 
793	 9.40664112567902E-02 
794	 9.40718874335289E-02 
795	 9.40590351819992E-02 
796	 9.40403565764427E-02 
797	 9.39697623252869E-02 
798	 9.39313471317291E-02 
799	 9.39346253871918E-02 
800	 9.39222052693367E-02 
801	 9.38868448138237E-02 
802	 9.38581526279449E-02 
803	 9.38441082835197E-02 
804	 9.38191935420036E-02 
805	 9.37471613287926E-02 
806	 9.36808362603188E-02 
807	 9.36540588736534E-02 
808	 9.36363413929939E-02 
809	 9.35965329408646E-02 
810	 9.35368239879608E-02 
811	 0.093470424413681 
812	 9.34082642197609E-02 
813	 9.33584347367287E-02 
814	 0.093292310833931 
815	 9.31989327073097E-02 
816	 9.31853801012039E-02 
817	 9.31428521871567E-02 
818	 9.30819511413574E-02 
819	 9.30513814091682E-02 
820	 9.29511114954948E-02 
821	 9.28451269865036E-02 
822	 9.27717685699463E-02 
823	 9.27329584956169E-02 
824	 9.26738455891609E-02 
825	 9.25739631056786E-02 
826	 0.092454619705677 
827	 0.092365987598896 
828	 9.22732800245285E-02 
829	 9.22032669186592E-02 
830	 9.21455323696136E-02 
831	 9.20411422848701E-02 
832	 9.19627919793129E-02 
833	 9.18924361467361E-02 
834	 9.18043628334999E-02 
835	 9.16904583573341E-02 
836	 9.16212648153305E-02 
837	 9.15462151169777E-02 
838	 9.14416238665581E-02 
839	 9.14000570774078E-02 
840	 0.091333843767643 
841	 9.12617892026901E-02 
842	 9.12081226706505E-02 
843	 0.091132640838623 
844	 9.10057201981544E-02 
845	 9.08988118171692E-02 
846	 0.090864859521389 
847	 9.07791703939438E-02 
848	 9.06760916113853E-02 
849	 9.05997902154922E-02 
850	 9.05671715736389E-02 
851	 9.04756337404251E-02 
852	 0.090367004275322 
853	 9.02779996395111E-02 
854	 9.02268961071968E-02 
855	 9.01740714907646E-02 
856	 9.01098921895027E-02 
857	 9.00380834937096E-02 
858	 8.99681374430656E-02 
859	 8.98924171924591E-02 
860	 8.98362323641777E-02 
861	 8.97923037409782E-02 
862	 8.97319465875626E-02 
863	 8.96464064717293E-02 
864	 8.95600616931915E-02 
865	 0.089491531252861 
866	 8.94479006528854E-02 
867	 8.94184783101082E-02 
868	 8.93685594201088E-02 
869	 8.93150866031647E-02 
870	 8.93041118979454E-02 
871	 8.92507955431938E-02 
872	 8.92066136002541E-02 
873	 0.089175671339035 
874	 8.91131162643433E-02 
875	 0.089039109647274 
876	 8.89694467186928E-02 
877	 8.89271572232246E-02 
878	 0.088932529091835 
879	 8.89448896050453E-02 
880	 8.89158770442009E-02 
881	 8.88654738664627E-02 
882	 8.88663530349731E-02 
883	 8.88471901416779E-02 
884	 8.88115465641022E-02 
885	 8.87817442417145E-02 
886	 8.87768343091011E-02 
887	 8.86954143643379E-02 
888	 0.088671587407589 
889	 8.87148827314377E-02 
890	 8.86969044804573E-02 
891	 8.86671468615532E-02 
892	 8.86516943573952E-02 
893	 0.08866136521101 
894	 8.86882767081261E-02 
895	 8.86931493878365E-02 
896	 0.088715098798275 
897	 8.87285321950912E-02 
898	 8.86624678969383E-02 
899	 8.86186584830284E-02 
900	 8.86526852846146E-02 
901	 8.87163057923317E-02 
902	 8.87020081281662E-02 
903	 8.86930227279663E-02 
904	 8.87234508991241E-02 
905	 8.87709707021713E-02 
906	 8.87802913784981E-02 
907	 8.87600928544998E-02 
908	 8.87438505887985E-02 
909	 8.87454673647881E-02 
910	 8.87645110487938E-02 
911	 0.088823676109314 
912	 8.88789743185043E-02 
913	 8.88914167881012E-02 
914	 8.88682454824448E-02 
915	 8.89921709895134E-02 
916	 8.90593975782394E-02 
917	 8.90638008713722E-02 
918	 8.90938192605972E-02 
919	 8.91091004014015E-02 
920	 8.91423299908638E-02 
921	 8.92205908894539E-02 
922	 8.93359780311584E-02 
923	 8.93867686390877E-02 
924	 8.94091799855232E-02 
925	 8.94390493631363E-02 
926	 8.94887074828148E-02 
927	 8.95047336816788E-02 
928	 8.95722508430481E-02 
929	 0.089593417942524 
930	 8.95611345767975E-02 
931	 8.97599458694458E-02 
932	 8.98177474737167E-02 
933	 8.98297876119614E-02 
934	 8.99022072553635E-02 
935	 8.99615064263344E-02 
936	 0.089994914829731 
937	 9.00503620505333E-02 
938	 9.01333317160606E-02 
939	 9.01873335242271E-02 
940	 9.02377814054489E-02 
941	 0.090323768556118 
942	 0.090416893362999 
943	 9.04446616768837E-02 
944	 9.04763117432594E-02 
945	 9.05320644378662E-02 
946	 9.06122848391533E-02 
947	 9.07002612948418E-02 
948	 9.07654836773872E-02 
949	 9.07846987247467E-02 
950	 9.08106043934822E-02 
951	 9.08894166350365E-02 
952	 9.09143462777138E-02 
953	 9.09989848732948E-02 
954	 9.10966098308563E-02 
955	 9.11394879221916E-02 
956	 9.11470428109169E-02 
957	 9.12194177508354E-02 
958	 9.13093760609627E-02 
959	 0.09139034897089 
960	 9.15151387453079E-02 
961	 9.15631353855133E-02 
962	 9.16121155023575E-02 
963	 9.16745588183403E-02 
964	 0.091683030128479 
965	 9.17152911424637E-02 
966	 9.17634218931198E-02 
967	 9.18188542127609E-02 
968	 9.18852388858795E-02 
969	 9.20089781284332E-02 
970	 9.20246690511703E-02 
971	 9.20322015881538E-02 
972	 9.21417474746704E-02 
973	 9.21900346875191E-02 
974	 0.092171736061573 
975	 9.21209007501602E-02 
976	 0.092101477086544 
977	 9.21855047345161E-02 
978	 9.23832952976227E-02 
979	 9.24903079867363E-02 
980	 9.24591794610024E-02 
981	 9.24279540777206E-02 
982	 9.24995988607407E-02 
983	 9.25416350364685E-02 
984	 9.25448834896088E-02 
985	 9.25627574324608E-02 
986	 9.25735458731651E-02 
987	 9.25666019320488E-02 
988	 9.26305428147316E-02 
989	 9.27903726696968E-02 
990	 9.29054319858551E-02 
991	 9.28853750228882E-02 
992	 0.092871181666851 
993	 9.29219275712967E-02 
994	 9.29658487439156E-02 
995	 9.29895341396332E-02 
996	 9.29849743843079E-02 
997	 9.29943472146988E-02 
998	 9.30489376187325E-02 
999	 9.30643156170845E-02 
1000	 9.30814072489738E-02 
1001	 9.17570739984512E-02 
1002	 9.16998907923698E-02 
1003	 9.16662886738777E-02 
1004	 9.16223675012589E-02 
1005	 9.16025415062904E-02 
1006	 9.15385186672211E-02 
1007	 9.14995893836021E-02 
1008	 9.15294662117958E-02 
1009	 9.15559902787209E-02 
1010	 9.17071402072906E-02 
1011	 9.17272120714188E-02 
1012	 9.16684716939926E-02 
1013	 9.16299000382423E-02 
1014	 9.15591567754745E-02 
1015	 9.15187001228333E-02 
1016	 9.14868637919426E-02 
1017	 9.14428308606148E-02 
1018	 9.13717523217201E-02 
1019	 9.14281085133553E-02 
1020	 9.15175378322601E-02 
1021	 9.15597453713417E-02 
1022	 9.16259065270424E-02 
1023	 9.16529223322868E-02 
1024	 9.16445925831795E-02 
1025	 9.15749296545982E-02 
1026	 9.15223583579063E-02 
1027	 9.14361104369164E-02 
1028	 9.13916900753975E-02 
1029	 9.13713797926903E-02 
1030	 9.13144871592522E-02 
1031	 9.12443622946739E-02 
1032	 0.091240793466568 
1033	 9.12222862243652E-02 
1034	 9.11491736769676E-02 
1035	 9.12018492817879E-02 
1036	 9.12895724177361E-02 
1037	 9.13200005888939E-02 
1038	 9.13415625691414E-02 
1039	 9.13364291191101E-02 
1040	 9.12751778960228E-02 
1041	 9.12441164255142E-02 
1042	 9.11786928772926E-02 
1043	 9.11903902888298E-02 
1044	 9.12912040948868E-02 
1045	 0.091288834810257 
1046	 9.12419930100441E-02 
1047	 9.12260711193085E-02 
1048	 9.11789909005165E-02 
1049	 9.11220982670784E-02 
1050	 9.10949259996414E-02 
1051	 9.10761207342148E-02 
1052	 9.10358875989914E-02 
1053	 9.09584015607834E-02 
1054	 9.09249633550644E-02 
1055	 9.09536108374596E-02 
1056	 9.09384414553642E-02 
1057	 9.09025147557259E-02 
1058	 9.08899083733559E-02 
1059	 9.08950790762901E-02 
1060	 9.08758938312531E-02 
1061	 0.090878076851368 
1062	 9.08390283584595E-02 
1063	 9.07747074961662E-02 
1064	 0.090674877166748 
1065	 9.06072035431862E-02 
1066	 0.090627945959568 
1067	 9.06752869486809E-02 
1068	 9.07772034406662E-02 
1069	 9.07964035868645E-02 
1070	 9.07526612281799E-02 
1071	 9.07486900687218E-02 
1072	 9.07459408044815E-02 
1073	 0.090666301548481 
1074	 9.06420648097992E-02 
1075	 9.07131507992744E-02 
1076	 9.06752645969391E-02 
1077	 9.06194373965263E-02 
1078	 9.06266495585442E-02 
1079	 9.05630216002464E-02 
1080	 9.04782637953758E-02 
1081	 9.04666855931282E-02 
1082	 9.04599502682686E-02 
1083	 9.04652550816536E-02 
1084	 9.05392616987228E-02 
1085	 9.06199365854263E-02 
1086	 9.06485021114349E-02 
1087	 9.06543210148811E-02 
1088	 9.06235426664352E-02 
1089	 9.05836746096611E-02 
1090	 9.05577391386032E-02 
1091	 0.090526819229126 
1092	 9.05240625143051E-02 
1093	 9.05905291438103E-02 
1094	 9.06503275036812E-02 
1095	 9.06842947006226E-02 
1096	 9.07542183995247E-02 
1097	 0.09078698605299 
1098	 9.07881930470467E-02 
1099	 9.07922089099884E-02 
1100	 9.08038094639778E-02 
1101	 9.08003970980644E-02 
1102	 9.07901898026466E-02 
1103	 9.06931310892105E-02 
1104	 9.06539112329483E-02 
1105	 9.06307026743889E-02 
1106	 9.05577689409256E-02 
1107	 9.06176939606667E-02 
1108	 0.090675413608551 
1109	 9.07143279910088E-02 
1110	 9.07817408442497E-02 
1111	 9.07550230622292E-02 
1112	 9.07303839921951E-02 
1113	 9.06983837485313E-02 
1114	 9.06415954232216E-02 
1115	 9.06991064548492E-02 
1116	 9.07749310135841E-02 
1117	 9.07996296882629E-02 
1118	 9.08203721046448E-02 
1119	 9.08325761556625E-02 
1120	 9.08123478293419E-02 
1121	 9.08473506569862E-02 
1122	 9.08690392971039E-02 
1123	 9.08959731459618E-02 
1124	 0.090988852083683 
1125	 0.091005839407444 
1126	 9.10456478595734E-02 
1127	 9.11443904042244E-02 
1128	 9.11110118031502E-02 
1129	 9.10530090332031E-02 
1130	 0.091083787381649 
1131	 9.11299288272858E-02 
1132	 9.12204682826996E-02 
1133	 9.13170352578163E-02 
1134	 9.13716033101082E-02 
1135	 9.13877636194229E-02 
1136	 9.13708284497261E-02 
1137	 9.13738906383514E-02 
1138	 9.14111286401749E-02 
1139	 9.14093777537346E-02 
1140	 9.14407968521118E-02 
1141	 9.14886072278023E-02 
1142	 0.091493546962738 
1143	 9.15423631668091E-02 
1144	 9.15748476982117E-02 
1145	 9.15986970067024E-02 
1146	 0.09166519343853 
1147	 9.17372852563858E-02 
1148	 9.18138846755028E-02 
1149	 9.18612852692604E-02 
1150	 9.18903648853302E-02 
1151	 9.19166058301926E-02 
1152	 9.19187366962433E-02 
1153	 9.19194146990776E-02 
1154	 9.19783860445023E-02 
1155	 9.20219197869301E-02 
1156	 9.20801311731339E-02 
1157	 9.21639204025269E-02 
1158	 9.22088027000427E-02 
1159	 9.22583416104317E-02 
1160	 9.23059582710266E-02 
1161	 9.23532024025917E-02 
1162	 9.24193859100342E-02 
1163	 9.24816429615021E-02 
1164	 9.25279781222343E-02 
1165	 9.25712883472443E-02 
1166	 9.26328599452972E-02 
1167	 9.27087664604187E-02 
1168	 9.27635952830315E-02 
1169	 9.28148105740547E-02 
1170	 9.28808003664017E-02 
1171	 9.29657444357872E-02 
1172	 9.30393487215042E-02 
1173	 9.31234359741211E-02 
1174	 0.093219481408596 
1175	 9.32576134800911E-02 
1176	 9.32942256331444E-02 
1177	 9.33884009718895E-02 
1178	 9.34770926833153E-02 
1179	 9.35695990920067E-02 
1180	 0.093659020960331 
1181	 9.36935395002365E-02 
1182	 9.37175750732422E-02 
1183	 9.37811285257339E-02 
1184	 9.38565880060196E-02 
1185	 9.39307436347008E-02 
1186	 9.40441563725472E-02 
1187	 9.41439419984818E-02 
1188	 9.42341089248657E-02 
1189	 9.43127572536469E-02 
1190	 9.44127812981606E-02 
1191	 9.44833979010582E-02 
1192	 9.45354774594307E-02 
1193	 0.094598725438118 
1194	 0.094663493335247 
1195	 9.47360098361969E-02 
1196	 9.47980135679245E-02 
1197	 9.48522239923477E-02 
1198	 9.49113592505455E-02 
1199	 9.49710458517075E-02 
1200	 9.50346887111664E-02 
1201	 9.51096788048744E-02 
1202	 9.51953157782555E-02 
1203	 9.52756926417351E-02 
1204	 9.53697711229324E-02 
1205	 9.55191552639008E-02 
1206	 9.56177040934563E-02 
1207	 9.56860557198524E-02 
1208	 9.57768559455872E-02 
1209	 9.58516225218773E-02 
1210	 9.58970114588737E-02 
1211	 9.59983170032501E-02 
1212	 9.60846021771431E-02 
1213	 9.61755663156509E-02 
1214	 9.62734073400497E-02 
1215	 9.63437035679817E-02 
1216	 9.64302271604538E-02 
1217	 9.65339615941048E-02 
1218	 9.66152027249336E-02 
1219	 9.66862514615059E-02 
1220	 0.096742756664753 
1221	 9.68308001756668E-02 
1222	 9.69113484025002E-02 
1223	 0.097009964287281 
1224	 9.71501991152763E-02 
1225	 9.72548648715019E-02 
1226	 9.73488166928291E-02 
1227	 9.74315106868744E-02 
1228	 9.75220873951912E-02 
1229	 9.76335778832436E-02 
1230	 9.77253541350365E-02 
1231	 9.78356376290321E-02 
1232	 9.79721397161484E-02 
1233	 9.80894193053246E-02 
1234	 9.82193797826767E-02 
1235	 9.83455255627632E-02 
1236	 9.84036549925804E-02 
1237	 9.84742194414139E-02 
1238	 9.85789075493813E-02 
1239	 0.098705843091011 
1240	 9.88058596849442E-02 
1241	 9.89306643605232E-02 
1242	 9.90249365568161E-02 
1243	 9.90705639123917E-02 
1244	 9.91556346416473E-02 
1245	 9.92536768317223E-02 
1246	 9.93596836924553E-02 
1247	 9.94897410273552E-02 
1248	 9.95963141322136E-02 
1249	 9.96905565261841E-02 
1250	 9.97711196541786E-02 
1251	 9.98370870947838E-02 
1252	 9.99291092157364E-02 
1253	 0.100008733570576 
1254	 0.100077912211418 
1255	 0.100174814462662 
1256	 0.100276052951813 
1257	 0.100377626717091 
1258	 0.100504852831364 
1259	 0.100628070533276 
1260	 0.100753203034401 
1261	 0.100850693881512 
1262	 0.100942328572273 
1263	 0.101048566401005 
1264	 0.101126961410046 
1265	 0.101226791739464 
1266	 0.101361908018589 
1267	 0.10147475451231 
1268	 0.101585119962692 
1269	 0.101688094437122 
1270	 0.101773850619793 
1271	 0.101881489157677 
1272	 0.101980924606323 
1273	 0.102073065936565 
1274	 0.102202817797661 
1275	 0.10230877995491 
1276	 0.102434985339642 
1277	 0.102575279772282 
1278	 0.102678664028645 
1279	 0.102823100984097 
1280	 0.10293035954237 
1281	 0.102995462715626 
1282	 0.103100851178169 
1283	 0.103197626769543 
1284	 0.103313729166985 
1285	 0.103501290082932 
1286	 0.103620380163193 
1287	 0.103699751198292 
1288	 0.103802889585495 
1289	 0.103879056870937 
1290	 0.103953763842583 
1291	 0.104025229811668 
1292	 0.104142434895039 
1293	 0.104240745306015 
1294	 0.104322008788586 
1295	 0.104428000748158 
1296	 0.10453362762928 
1297	 0.104586020112038 
1298	 0.104638963937759 
1299	 0.104725569486618 
1300	 0.104834765195847 
1301	 0.104980364441872 
1302	 0.105132207274437 
1303	 0.105259463191032 
1304	 0.105369910597801 
1305	 0.105479426681995 
1306	 0.105578050017357 
1307	 0.105682455003262 
1308	 0.105767674744129 
1309	 0.105882562696934 
1310	 0.106017179787159 
1311	 0.106148563325405 
1312	 0.106305249035358 
1313	 0.106446228921413 
1314	 0.10656551271677 
1315	 0.106694512069225 
1316	 0.106810986995697 
1317	 0.10696841776371 
1318	 0.107119426131248 
1319	 0.10726410150528 
1320	 0.107403784990311 
1321	 0.107511505484581 
1322	 0.107637085020542 
1323	 0.107752501964569 
1324	 0.107838205993176 
1325	 0.107995875179768 
1326	 0.108155257999897 
1327	 0.108328267931938 
1328	 0.10847681760788 
1329	 0.108669683337212 
1330	 0.108783535659313 
1331	 0.108807221055031 
1332	 0.108921639621258 
1333	 0.109053276479244 
1334	 0.109171539545059 
1335	 0.109328806400299 
1336	 0.109463252127171 
1337	 0.109536580741405 
1338	 0.109673753380775 
1339	 0.109890185296535 
1340	 0.110041558742523 
1341	 0.110189683735371 
1342	 0.1103191152215 
1343	 0.110410004854202 
1344	 0.110461987555027 
1345	 0.110586866736412 
1346	 0.110767431557178 
1347	 0.110942125320435 
1348	 0.111115828156471 
1349	 0.11122702807188 
1350	 0.111296944320202 
1351	 0.111387237906456 
1352	 0.111434727907181 
1353	 0.111548312008381 
1354	 0.111710779368877 
1355	 0.111840523779392 
1356	 0.111991114914417 
1357	 0.112119108438492 
1358	 0.112218536436558 
1359	 0.112327434122562 
1360	 0.112433657050133 
1361	 0.112550906836987 
1362	 0.11267251521349 
1363	 0.112790532410145 
1364	 0.112927347421646 
1365	 0.113029509782791 
1366	 0.113095387816429 
1367	 0.113191410899162 
1368	 0.113280087709427 
1369	 0.113387480378151 
1370	 0.113520391285419 
1371	 0.113625153899193 
1372	 0.113689623773098 
1373	 0.113764189183712 
1374	 0.113858230412006 
1375	 0.113936148583889 
1376	 0.114012345671654 
1377	 0.114090003073215 
1378	 0.114138595759869 
1379	 0.114167355000973 
1380	 0.114186979830265 
1381	 0.114253401756287 
1382	 0.11416207253933 
1383	 0.113996267318726 
1384	 0.113798178732395 
1385	 0.113493666052818 
1386	 0.113201454281807 
1387	 0.112906947731972 
1388	 0.112574219703674 
1389	 0.11213605850935 
1390	 0.111807428300381 
1391	 0.111485414206982 
1392	 0.111225120723248 
1393	 0.111015722155571 
1394	 0.110868528485298 
1395	 0.110769048333168 
1396	 0.110708601772785 
1397	 0.110706523060799 
1398	 0.110750384628773 
1399	 0.110858902335167 
1400	 0.110967352986336 
1401	 0.111068189144135 
1402	 0.11119781434536 
1403	 0.111291110515594 
1404	 0.111384280025959 
1405	 0.111540228128433 
1406	 0.111684992909431 
1407	 0.111814692616463 
1408	 0.111968845129013 
1409	 0.112126462161541 
1410	 0.112322807312012 
1411	 0.112544327974319 
1412	 0.112800560891628 
1413	 0.113062798976898 
1414	 0.113358303904533 
1415	 0.113645069301128 
1416	 0.11395388841629 
1417	 0.114238023757935 
1418	 0.114512518048286 
1419	 0.114779531955719 
1420	 0.11503978818655 
1421	 0.11529529094696 
1422	 0.11555889248848 
1423	 0.115787453949451 
1424	 0.116009220480919 
1425	 0.116186507046223 
1426	 0.116314962506294 
1427	 0.116454549133778 
1428	 0.116568267345428 
1429	 0.116680651903152 
1430	 0.11679795384407 
1431	 0.116900138556957 
1432	 0.116983346641064 
1433	 0.117066524922848 
1434	 0.117140866816044 
1435	 0.117213077843189 
1436	 0.117311373353004 
1437	 0.117398910224438 
1438	 0.117483094334602 
1439	 0.117587603628635 
1440	 0.117654897272587 
1441	 0.117736525833607 
1442	 0.117866180837154 
1443	 0.117970235645771 
1444	 0.118066109716892 
1445	 0.11817791312933 
1446	 0.118277966976166 
1447	 0.118342183530331 
1448	 0.118465669453144 
1449	 0.118631415069103 
1450	 0.118759676814079 
1451	 0.118897296488285 
1452	 0.119032546877861 
1453	 0.119146198034286 
1454	 0.119267456233501 
1455	 0.119403369724751 
1456	 0.119533762335777 
1457	 0.11964924633503 
1458	 0.119776286184788 
1459	 0.119925625622272 
1460	 0.120058342814445 
1461	 0.120176039636135 
1462	 0.120298117399216 
1463	 0.120413795113564 
1464	 0.120536834001541 
1465	 0.120654940605164 
1466	 0.120801530778408 
1467	 0.120986424386501 
1468	 0.121131293475628 
1469	 0.121271319687366 
1470	 0.121405705809593 
1471	 0.121505714952946 
1472	 0.12162596732378 
1473	 0.12177038192749 
1474	 0.121896922588348 
1475	 0.122016556560993 
1476	 0.122130170464516 
1477	 0.122245520353317 
1478	 0.122350595891476 
1479	 0.122483678162098 
1480	 0.122626796364784 
1481	 0.122742801904678 
1482	 0.12287362664938 
1483	 0.123015485703945 
1484	 0.123130716383457 
1485	 0.123267076909542 
1486	 0.123406633734703 
1487	 0.123499743640423 
1488	 0.123613886535168 
1489	 0.123737394809723 
1490	 0.123842410743237 
1491	 0.123961851000786 
1492	 0.124061658978462 
1493	 0.12416236102581 
1494	 0.124254249036312 
1495	 0.124344781041145 
1496	 0.124428905546665 
1497	 0.124515697360039 
1498	 0.124592311680317 
1499	 0.124677427113056 
1500	 0.124787107110023 
1501	 0.124866813421249 
1502	 0.124914839863777 
1503	 0.124994590878487 
1504	 0.125080794095993 
1505	 0.125159904360771 
1506	 0.12527047097683 
1507	 0.1253432482481 
1508	 0.125362440943718 
1509	 0.125428035855293 
1510	 0.125502586364746 
1511	 0.125587239861488 
1512	 0.125708669424057 
1513	 0.125803530216217 
1514	 0.125879660248756 
1515	 0.125973641872406 
1516	 0.12608690559864 
1517	 0.126172095537186 
1518	 0.126237198710442 
1519	 0.126324847340584 
1520	 0.126407667994499 
1521	 0.126484632492065 
1522	 0.126589670777321 
1523	 0.126673817634583 
1524	 0.126714676618576 
1525	 0.126786828041077 
1526	 0.126873284578323 
1527	 0.1269591152668 
1528	 0.127069056034088 
1529	 0.127162605524063 
1530	 0.127241134643555 
1531	 0.127331703901291 
1532	 0.127438545227051 
1533	 0.127522200345993 
1534	 0.127600625157356 
1535	 0.127688124775887 
1536	 0.127771303057671 
1537	 0.127859488129616 
1538	 0.127960070967674 
1539	 0.128057867288589 
1540	 0.128155618906021 
1541	 0.128237381577492 
1542	 0.128302067518234 
1543	 0.128405347466469 
1544	 0.128546148538589 
1545	 0.128668293356895 
1546	 0.128793925046921 
1547	 0.128921493887901 
1548	 0.129018768668175 
1549	 0.129115745425224 
1550	 0.129231080412865 
1551	 0.129356741905212 
1552	 0.129458904266357 
1553	 0.129548445343971 
1554	 0.129657104611397 
1555	 0.129766717553139 
1556	 0.129885748028755 
1557	 0.13001349568367 
1558	 0.130131095647812 
1559	 0.130261346697807 
1560	 0.130383983254433 
1561	 0.130478650331497 
1562	 0.130585476756096 
1563	 0.13069474697113 
1564	 0.130791425704956 
1565	 0.130930602550507 
1566	 0.131095826625824 
1567	 0.131226122379303 
1568	 0.131353765726089 
1569	 0.131485924124718 
1570	 0.13160365819931 
1571	 0.131686478853226 
1572	 0.131814509630203 
1573	 0.131965219974518 
1574	 0.132105857133865 
1575	 0.132261872291565 
1576	 0.132410421967506 
1577	 0.132545009255409 
1578	 0.132689148187637 
1579	 0.132851481437683 
1580	 0.13298662006855 
1581	 0.133102595806122 
1582	 0.133243963122368 
1583	 0.133376911282539 
1584	 0.133530080318451 
1585	 0.133726432919502 
1586	 0.133876219391823 
1587	 0.133998811244965 
1588	 0.134129121899605 
1589	 0.134257271885872 
1590	 0.134376898407936 
1591	 0.134485423564911 
1592	 0.13461609184742 
1593	 0.134735852479935 
1594	 0.134866759181023 
1595	 0.135035648941994 
1596	 0.135171443223953 
1597	 0.135288268327713 
1598	 0.135407343506813 
1599	 0.135512799024582 
1600	 0.135639637708664 
1601	 0.135777056217194 
1602	 0.135914549231529 
1603	 0.136055663228035 
1604	 0.136190325021744 
1605	 0.136324465274811 
1606	 0.136467695236206 
1607	 0.13662500679493 
1608	 0.136755377054214 
1609	 0.136867940425873 
1610	 0.137007594108582 
1611	 0.137153804302216 
1612	 0.137277349829674 
1613	 0.137393400073051 
1614	 0.137533739209175 
1615	 0.137657105922699 
1616	 0.137812346220016 
1617	 0.138026416301727 
1618	 0.138200789690018 
1619	 0.138353988528252 
1620	 0.138496056199074 
1621	 0.138635084033012 
1622	 0.138781398534775 
1623	 0.138917475938797 
1624	 0.139055162668228 
1625	 0.139192685484886 
1626	 0.139336824417114 
1627	 0.139482647180557 
1628	 0.139621362090111 
1629	 0.139755696058273 
1630	 0.139898151159286 
1631	 0.140043675899506 
1632	 0.140195325016975 
1633	 0.140377849340439 
1634	 0.140513405203819 
1635	 0.140602141618729 
1636	 0.140722811222076 
1637	 0.140841588377953 
1638	 0.140971094369888 
1639	 0.141131922602654 
1640	 0.141266539692879 
1641	 0.141380339860916 
1642	 0.141505181789398 
1643	 0.141630277037621 
1644	 0.141749531030655 
1645	 0.14185905456543 
1646	 0.141985967755318 
1647	 0.142117962241173 
1648	 0.142259627580643 
1649	 0.142434760928154 
1650	 0.142570659518242 
1651	 0.142685234546661 
1652	 0.142809823155403 
1653	 0.142899408936501 
1654	 0.143033862113953 
1655	 0.14321106672287 
1656	 0.143360584974289 
1657	 0.143532544374466 
1658	 0.143664821982384 
1659	 0.143742203712463 
1660	 0.143880039453506 
1661	 0.144042909145355 
1662	 0.144165098667145 
1663	 0.144310355186462 
1664	 0.144411876797676 
1665	 0.14443601667881 
1666	 0.144578441977501 
1667	 0.144731879234314 
1668	 0.144890353083611 
1669	 0.145009219646454 
1670	 0.145113259553909 
1671	 0.145212575793266 
1672	 0.145331665873528 
1673	 0.14551168680191 
1674	 0.14563225209713 
1675	 0.145709037780762 
1676	 0.145832881331444 
1677	 0.145929932594299 
1678	 0.146045595407486 
1679	 0.146205976605415 
1680	 0.146306857466698 
1681	 0.146384507417679 
1682	 0.146491378545761 
1683	 0.146622389554977 
1684	 0.146740838885307 
1685	 0.146851778030396 
1686	 0.146982342004776 
1687	 0.147093221545219 
1688	 0.147222459316254 
1689	 0.147390678524971 
1690	 0.147532150149345 
1691	 0.147655099630356 
1692	 0.147780194878578 
1693	 0.147888764739037 
1694	 0.148025318980217 
1695	 0.148163571953773 
1696	 0.148279994726181 
1697	 0.148425236344337 
1698	 0.148549288511276 
1699	 0.14867128431797 
1700	 0.148828998208046 
1701	 0.148959338665009 
1702	 0.149090901017189 
1703	 0.149186328053474 
1704	 0.149215549230576 
1705	 0.149306401610374 
1706	 0.149409607052803 
1707	 0.149513810873032 
1708	 0.149678125977516 
1709	 0.149826362729073 
1710	 0.149945572018623 
1711	 0.150043949484825 
1712	 0.150125920772552 
1713	 0.150211811065674 
1714	 0.150315225124359 
1715	 0.150446772575378 
1716	 0.150593280792236 
1717	 0.150731891393661 
1718	 0.150861337780952 
1719	 0.150970652699471 
1720	 0.151078119874001 
1721	 0.151197120547295 
1722	 0.151283025741577 
1723	 0.151387721300125 
1724	 0.151536181569099 
1725	 0.151661604642868 
1726	 0.151804700493813 
1727	 0.151925310492516 
1728	 0.15202060341835 
1729	 0.152119979262352 
1730	 0.152209281921387 
1731	 0.15229843556881 
1732	 0.152397662401199 
1733	 0.152478843927383 
1734	 0.152549907565117 
1735	 0.152612492442131 
1736	 0.152643844485283 
1737	 0.152730733156204 
1738	 0.152808383107185 
1739	 0.152907684445381 
1740	 0.153004497289658 
1741	 0.15309964120388 
1742	 0.153222158551216 
1743	 0.153341934084892 
1744	 0.153442233800888 
1745	 0.153522714972496 
1746	 0.153604999184608 
1747	 0.153678759932518 
1748	 0.153766617178917 
1749	 0.153878703713417 
1750	 0.153940767049789 
1751	 0.154013112187386 
1752	 0.154124483466148 
1753	 0.154190823435783 
1754	 0.154287308454514 
1755	 0.154387176036835 
1756	 0.154442757368088 
1757	 0.15457458794117 
1758	 0.154721796512604 
1759	 0.154839709401131 
1760	 0.154941603541374 
1761	 0.154996618628502 
1762	 0.15506049990654 
1763	 0.155098959803581 
1764	 0.155145883560181 
1765	 0.15524710714817 
1766	 0.155309408903122 
1767	 0.155403017997742 
1768	 0.155548006296158 
1769	 0.155643790960312 
1770	 0.155719667673111 
1771	 0.155790492892265 
1772	 0.155868336558342 
1773	 0.155968338251114 
1774	 0.156057849526405 
1775	 0.156146660447121 
1776	 0.156230509281158 
1777	 0.156263500452042 
1778	 0.156332030892372 
1779	 0.156418815255165 
1780	 0.156503677368164 
1781	 0.15658076107502 
1782	 0.156679421663284 
1783	 0.156796336174011 
1784	 0.156887978315353 
1785	 0.156987309455872 
1786	 0.157098934054375 
1787	 0.157210737466812 
1788	 0.157324030995369 
1789	 0.157399490475655 
1790	 0.157446563243866 
1791	 0.157468140125275 
1792	 0.15745484828949 
1793	 0.157459393143654 
1794	 0.157517403364182 
1795	 0.157593667507172 
1796	 0.157687813043594 
1797	 0.157831132411957 
1798	 0.15792053937912 
1799	 0.157967641949654 
1800	 0.158033207058907 
1801	 0.158052489161491 
1802	 0.158102199435234 
1803	 0.158171489834785 
1804	 0.158214554190636 
1805	 0.15828076004982 
1806	 0.158297657966614 
1807	 0.158293291926384 
1808	 0.1583072245121 
1809	 0.158292263746262 
1810	 0.15833355486393 
1811	 0.15838623046875 
1812	 0.158459141850471 
1813	 0.158600941300392 
1814	 0.158664733171463 
1815	 0.158707052469254 
1816	 0.158737704157829 
1817	 0.158764749765396 
1818	 0.158828809857368 
1819	 0.158912762999535 
1820	 0.158974185585976 
1821	 0.159032374620438 
1822	 0.1590805798769 
1823	 0.159154877066612 
1824	 0.159254461526871 
1825	 0.159342795610428 
1826	 0.159416079521179 
1827	 0.159505262970924 
1828	 0.159584507346153 
1829	 0.159660547971725 
1830	 0.159727618098259 
1831	 0.166377514600754 
1832	 0.166348934173584 
1833	 0.166390046477318 
1834	 0.166443482041359 
1835	 0.16645759344101 
1836	 0.166561603546143 
1837	 0.166574403643608 
1838	 0.166463121771812 
1839	 0.166430577635765 
1840	 0.166455239057541 
1841	 0.166445285081863 
1842	 0.166468515992165 
1843	 0.166462510824203 
1844	 0.166409060359001 
1845	 0.166279807686806 
1846	 0.166213303804398 
1847	 0.166156530380249 
1848	 0.166059136390686 
1849	 0.166019961237907 
1850	 0.165957018733025 
1851	 0.165852710604668 
1852	 0.165754213929176 
1853	 0.165643125772476 
1854	 0.165621981024742 
1855	 0.165535420179367 
1856	 0.165402203798294 
1857	 0.165308803319931 
1858	 0.165222480893135 
1859	 0.165102571249008 
1860	 0.165030583739281 
1861	 0.165051192045212 
1862	 0.165009289979935 
1863	 0.164871692657471 
1864	 0.164759024977684 
1865	 0.164599284529686 
1866	 0.164468750357628 
1867	 0.164334610104561 
1868	 0.164267793297768 
1869	 0.164157629013062 
1870	 0.164089918136597 
1871	 0.163981020450592 
1872	 0.163787722587585 
1873	 0.163644388318062 
1874	 0.16354276239872 
1875	 0.163417756557465 
1876	 0.163288086652756 
1877	 0.163145825266838 
1878	 0.162987023591995 
1879	 0.162767097353935 
1880	 0.16258916258812 
1881	 0.162436485290527 
1882	 0.162282675504684 
1883	 0.162153214216232 
1884	 0.161971017718315 
1885	 0.161834999918938 
1886	 0.161783933639526 
1887	 0.161631509661675 
1888	 0.161458447575569 
1889	 0.161288499832153 
1890	 0.161086514592171 
1891	 0.160801649093628 
1892	 0.160613492131233 
1893	 0.160418972373009 
1894	 0.160195022821426 
1895	 0.160013392567635 
1896	 0.159773707389832 
1897	 0.159479811787605 
1898	 0.159174263477325 
1899	 0.158868849277496 
1900	 0.158504948019981 
1901	 0.158182844519615 
1902	 0.157943934202194 
1903	 0.157723188400269 
1904	 0.157543435692787 
1905	 0.157441765069962 
1906	 0.157362908124924 
1907	 0.157213062047958 
1908	 0.157099485397339 
1909	 0.156996756792068 
1910	 0.156926453113556 
1911	 0.156827569007874 
1912	 0.156892001628876 
1913	 0.156964659690857 
1914	 0.157017558813095 
1915	 0.157100781798363 
1916	 0.157092481851578 
1917	 0.157128483057022 
1918	 0.157222881913185 
1919	 0.157279714941978 
1920	 0.15739543735981 
1921	 0.157473638653755 
1922	 0.157546073198318 
1923	 0.157582208514214 
1924	 0.157635167241096 
1925	 0.157651990652084 
1926	 0.157731562852859 
1927	 0.157825648784637 
1928	 0.15780745446682 
1929	 0.157730981707573 
1930	 0.157719060778618 
1931	 0.157761350274086 
1932	 0.157790675759315 
1933	 0.157800421118736 
1934	 0.157874420285225 
1935	 0.157885611057281 
1936	 0.157800137996674 
1937	 0.157704874873161 
1938	 0.157643482089043 
1939	 0.157643646001816 
1940	 0.157609939575195 
1941	 0.157536536455154 
1942	 0.157507598400116 
1943	 0.157431900501251 
1944	 0.157342925667763 
1945	 0.157245546579361 
1946	 0.157158419489861 
1947	 0.157073393464088 
1948	 0.156928822398186 
1949	 0.156782865524292 
1950	 0.156632363796234 
1951	 0.156513541936874 
1952	 0.156428635120392 
1953	 0.15636545419693 
1954	 0.156380921602249 
1955	 0.156414330005646 
1956	 0.156393587589264 
1957	 0.156380698084831 
1958	 0.15639029443264 
1959	 0.156365737318993 
1960	 0.156273737549782 
1961	 0.156285494565964 
1962	 0.156291931867599 
1963	 0.156235486268997 
1964	 0.156222090125084 
1965	 0.156179651618004 
1966	 0.156058639287949 
1967	 0.155969634652138 
1968	 0.155901819467545 
1969	 0.155826017260551 
1970	 0.15573413670063 
1971	 0.155662998557091 
1972	 0.155609354376793 
1973	 0.155556663870811 
1974	 0.155486300587654 
1975	 0.155397519469261 
1976	 0.155280932784081 
1977	 0.155154645442963 
1978	 0.154968276619911 
1979	 0.154787331819534 
1980	 0.154748573899269 
1981	 0.15469591319561 
1982	 0.154617682099342 
1983	 0.154614195227623 
1984	 0.15474259853363 
1985	 0.154733628034592 
1986	 0.154637217521667 
1987	 0.154679998755455 
1988	 0.154684007167816 
1989	 0.154681324958801 
1990	 0.154753968119621 
1991	 0.154789224267006 
1992	 0.154767960309982 
1993	 0.154771581292152 
1994	 0.154828533530235 
1995	 0.154934540390968 
1996	 0.155030816793442 
1997	 0.155187353491783 
1998	 0.155303910374641 
1999	 0.1553905159235 
2000	 0.155499175190926 
2001	 0.155625969171524 
2002	 0.155730471014977 
2003	 0.15591225028038 
2004	 0.156149014830589 
2005	 0.156356021761894 
2006	 0.156527832150459 
2007	 0.156716093420982 
2008	 0.156817272305489 
2009	 0.157084435224533 
2010	 0.157494768500328 
2011	 0.15779373049736 
2012	 0.158104062080383 
2013	 0.158447757363319 
2014	 0.158757165074348 
2015	 0.159126117825508 
2016	 0.159549549221992 
2017	 0.159988150000572 
2018	 0.160371124744415 
2019	 0.160678818821907 
2020	 0.16106128692627 
2021	 0.161500290036201 
2022	 0.161907285451889 
2023	 0.162286311388016 
2024	 0.162758603692055 
2025	 0.16335791349411 
2026	 0.163787350058556 
2027	 0.164166867733002 
2028	 0.164549618959427 
2029	 0.164911463856697 
2030	 0.165282607078552 
2031	 0.165720954537392 
2032	 0.166189968585968 
2033	 0.166595965623856 
2034	 0.16697932779789 
2035	 0.167377904057503 
2036	 0.167797654867172 
2037	 0.168227672576904 
2038	 0.16869492828846 
2039	 0.169084101915359 
2040	 0.169443875551224 
2041	 0.169836476445198 
2042	 0.17024128139019 
2043	 0.170518264174461 
2044	 0.170787319540977 
2045	 0.171100720763206 
2046	 0.171400308609009 
2047	 0.17170612514019 
2048	 0.171978533267975 
2049	 0.172294810414314 
2050	 0.172588512301445 
2051	 0.17280487716198 
2052	 0.173046290874481 
2053	 0.173384174704552 
2054	 0.173646181821823 
2055	 0.173779532313347 
2056	 0.174009844660759 
2057	 0.174292519688606 
2058	 0.174528315663338 
2059	 0.174843981862068 
2060	 0.175164550542831 
2061	 0.175398379564285 
2062	 0.175562292337418 
2063	 0.175676539540291 
2064	 0.17586313188076 
2065	 0.176052808761597 
2066	 0.176283568143845 
2067	 0.176508501172066 
2068	 0.176737487316132 
2069	 0.17693667113781 
2070	 0.177196621894836 
2071	 0.177359148859978 
2072	 0.177449077367783 
2073	 0.177526950836182 
2074	 0.177613168954849 
2075	 0.177684813737869 
2076	 0.177881464362144 
2077	 0.178161412477493 
2078	 0.178320527076721 
2079	 0.178489848971367 
2080	 0.178679093718529 
2081	 0.178838089108467 
2082	 0.178972780704498 
2083	 0.179150104522705 
2084	 0.179277092218399 
2085	 0.17930269241333 
2086	 0.179404482245445 
2087	 0.17956331372261 
2088	 0.179680839180946 
2089	 0.179799690842628 
2090	 0.179922297596931 
2091	 0.179913401603699 
2092	 0.179914757609367 
2093	 0.179903000593185 
2094	 0.179787620902061 
2095	 0.179763123393059 
2096	 0.179717123508453 
2097	 0.179673373699188 
2098	 0.179639458656311 
2099	 0.179594397544861 
2100	 0.179526329040527 
2101	 0.179495811462402 
2102	 0.179450169205666 
2103	 0.179429605603218 
2104	 0.179480597376823 
2105	 0.179479718208313 
2106	 0.179441213607788 
2107	 0.179456427693367 
2108	 0.179509326815605 
2109	 0.179402470588684 
2110	 0.179295599460602 
2111	 0.179208472371101 
2112	 0.179051280021667 
2113	 0.179032415151596 
2114	 0.1790432035923 
2115	 0.179192185401917 
2116	 0.179203525185585 
2117	 0.179186254739761 
2118	 0.179167911410332 
2119	 0.179047286510468 
2120	 0.179056435823441 
2121	 0.17918398976326 
2122	 0.179228901863098 
2123	 0.179257109761238 
2124	 0.179320678114891 
2125	 0.179347068071365 
2126	 0.179418221116066 
2127	 0.179547607898712 
2128	 0.179690033197403 
2129	 0.179842889308929 
2130	 0.179922834038734 
2131	 0.179922163486481 
2132	 0.180015027523041 
2133	 0.180060938000679 
2134	 0.180053234100342 
2135	 0.180049553513527 
2136	 0.180046454071999 
2137	 0.180052906274796 
2138	 0.180074006319046 
2139	 0.180049866437912 
2140	 0.180012479424477 
2141	 0.179988980293274 
2142	 0.179934978485107 
2143	 0.179840967059135 
2144	 0.179741606116295 
2145	 0.1796865016222 
2146	 0.179494336247444 
2147	 0.179342895746231 
2148	 0.179246470332146 
2149	 0.179110467433929 
2150	 0.178949043154716 
2151	 0.1788270175457 
2152	 0.178743630647659 
2153	 0.178702712059021 
2154	 0.178599417209625 
2155	 0.17854642868042 
2156	 0.178426533937454 
2157	 0.178216174244881 
2158	 0.178030893206596 
2159	 0.177852466702461 
2160	 0.17764276266098 
2161	 0.177396014332771 
2162	 0.177184984087944 
2163	 0.177003622055054 
2164	 0.176745042204857 
2165	 0.176514461636543 
2166	 0.176288425922394 
2167	 0.176101848483086 
2168	 0.175935730338097 
2169	 0.175694704055786 
2170	 0.175485759973526 
2171	 0.17533603310585 
2172	 0.175081938505173 
2173	 0.174825072288513 
2174	 0.174605965614319 
2175	 0.174359291791916 
2176	 0.174022570252419 
2177	 0.173746660351753 
2178	 0.173586785793304 
2179	 0.173269927501678 
2180	 0.172812417149544 
2181	 0.172458797693253 
2182	 0.172035977244377 
2183	 0.17169126868248 
2184	 0.171537548303604 
2185	 0.171244218945503 
2186	 0.170906603336334 
2187	 0.170520693063736 
2188	 0.170177817344666 
2189	 0.169738039374352 
2190	 0.169270366430283 
2191	 0.168928027153015 
2192	 0.168519869446754 
2193	 0.16804826259613 
2194	 0.167694851756096 
2195	 0.167363315820694 
2196	 0.166933804750443 
2197	 0.166432961821556 
2198	 0.166017070412636 
2199	 0.165552109479904 
2200	 0.165145084261894 
2201	 0.16489814221859 
2202	 0.164495974779129 
2203	 0.163985550403595 
2204	 0.163522303104401 
2205	 0.163024306297302 
2206	 0.162569299340248 
2207	 0.162128701806068 
2208	 0.161718428134918 
2209	 0.161463886499405 
2210	 0.16096493601799 
2211	 0.160306334495544 
2212	 0.159730285406113 
2213	 0.159135296940804 
2214	 0.158432722091675 
2215	 0.157863527536392 
2216	 0.15741078555584 
2217	 0.156767264008522 
2218	 0.156057223677635 
2219	 0.155405610799789 
2220	 0.154567375779152 
2221	 0.153672248125076 
2222	 0.152748540043831 
2223	 0.151809141039848 
2224	 0.150846973061562 
2225	 0.149832636117935 
2226	 0.14882880449295 
2227	 0.147673562169075 
2228	 0.146319508552551 
2229	 0.145078882575035 
2230	 0.143912866711617 
2231	 0.142551064491272 
2232	 0.141222968697548 
2233	 0.139688104391098 
2234	 0.137821063399315 
2235	 0.136040836572647 
2236	 0.134218499064445 
2237	 0.132377922534943 
2238	 0.130516365170479 
2239	 0.128604620695114 
2240	 0.126771047711372 
2241	 0.124986857175827 
2242	 0.123094834387302 
2243	 0.121245346963406 
2244	 0.119447827339172 
2245	 0.117771953344345 
2246	 0.116394013166428 
2247	 0.115286357700825 
2248	 0.114296808838844 
2249	 0.113347791135311 
2250	 0.112555213272572 
2251	 0.111965224146843 
2252	 0.111514657735825 
2253	 0.111216440796852 
2254	 0.111179836094379 
2255	 0.111371986567974 
2256	 0.111630454659462 
2257	 0.112199179828167 
2258	 0.112669758498669 
2259	 0.113133035600185 
2260	 0.11368765681982 
2261	 0.114384591579437 
2262	 0.114957891404629 
2263	 0.115501008927822 
2264	 0.116095580160618 
2265	 0.116734847426414 
2266	 0.117241181433201 
2267	 0.117795549333096 
2268	 0.118194110691547 
2269	 0.11828426271677 
2270	 0.118548952043056 
2271	 0.118876740336418 
2272	 0.119183845818043 
2273	 0.119357168674469 
2274	 0.119543224573135 
2275	 0.11952381581068 
2276	 0.119338400661945 
2277	 0.119329869747162 
2278	 0.119274578988552 
2279	 0.119016274809837 
2280	 0.118725650012493 
2281	 0.118281036615372 
2282	 0.117650158703327 
2283	 0.117235377430916 
2284	 0.116851136088371 
2285	 0.11625712364912 
2286	 0.115906678140163 
2287	 0.115416646003723 
2288	 0.114602386951447 
2289	 0.113980412483215 
2290	 0.113415583968163 
2291	 0.112888343632221 
2292	 0.112482696771622 
2293	 0.111919194459915 
2294	 0.111252911388874 
2295	 0.110765136778355 
2296	 0.110267736017704 
2297	 0.109838336706161 
2298	 0.109579302370548 
2299	 0.109239757061005 
2300	 0.108913220465183 
2301	 0.108490660786629 
2302	 0.107934899628162 
2303	 0.107625223696232 
2304	 0.107334464788437 
2305	 0.107068255543709 
2306	 0.107124090194702 
2307	 0.106972597539425 
2308	 0.1065424233675 
2309	 0.106315694749355 
2310	 0.106262110173702 
2311	 0.106003485620022 
2312	 0.105703085660934 
2313	 0.105434939265251 
2314	 0.105096489191055 
2315	 0.104765437543392 
2316	 0.104501068592072 
2317	 0.104134291410446 
2318	 0.103798680007458 
2319	 0.103309221565723 
2320	 0.103069581091404 
2321	 0.10310235619545 
2322	 0.102897986769676 
2323	 0.102675698697567 
2324	 0.102431140840054 
2325	 0.101965136826038 
2326	 0.101667881011963 
2327	 0.101434111595154 
2328	 0.101112551987171 
2329	 0.100937739014626 
2330	 0.100785315036774 
2331	 0.100564882159233 
2332	 0.100388191640377 
2333	 0.100216962397099 
2334	 0.1000721976161 
2335	 9.99705120921135E-02 
2336	 9.98675152659416E-02 
2337	 9.98278483748436E-02 
2338	 9.99431386590004E-02 
2339	 0.100170448422432 
2340	 0.100353442132473 
2341	 0.100535951554775 
2342	 0.100802645087242 
2343	 0.100940093398094 
2344	 0.101141162216663 
2345	 0.101454593241215 
2346	 0.101453393697739 
2347	 0.101511105895042 
2348	 0.101831898093224 
2349	 0.102258272469044 
2350	 0.102679699659348 
2351	 0.103383637964725 
2352	 0.103746794164181 
2353	 0.103843107819557 
2354	 0.104128412902355 
2355	 0.104433178901672 
2356	 0.104773886501789 
2357	 0.105164706707001 
2358	 0.105530008673668 
2359	 0.105863451957703 
2360	 0.106328867375851 
2361	 0.106810942292213 
2362	 0.107397980988026 
2363	 0.108154647052288 
2364	 0.108773276209831 
2365	 0.109503231942654 
2366	 0.110074885189533 
2367	 0.110460117459297 
2368	 0.110898852348328 
2369	 0.111208476126194 
2370	 0.111753165721893 
2371	 0.112473361194134 
2372	 0.113101646304131 
2373	 0.113775357604027 
2374	 0.11439622938633 
2375	 0.115176856517792 
2376	 0.115466117858887 
2377	 0.115376926958561 
2378	 0.1156265437603 
2379	 0.115608565509319 
2380	 0.115817114710808 
2381	 0.116453014314175 
2382	 0.116883777081966 
2383	 0.117202505469322 
2384	 0.117469571530819 
2385	 0.117795251309872 
2386	 0.118007704615593 
2387	 0.118028163909912 
2388	 0.118157960474491 
2389	 0.118382886052132 
2390	 0.118428491055965 
2391	 0.11827740073204 
2392	 0.118302017450333 
2393	 0.118346884846687 
2394	 0.118399597704411 
2395	 0.118547275662422 
2396	 0.118657909333706 
2397	 0.118752218782902 
2398	 0.118828184902668 
2399	 0.118838869035244 
2400	 0.119071491062641 
2401	 0.119370184838772 
2402	 0.119627125561237 
2403	 0.120182029902935 
2404	 0.120402969419956 
2405	 0.120359100401402 
2406	 0.120394021272659 
2407	 0.120227217674255 
2408	 0.120350874960423 
2409	 0.120698466897011 
2410	 0.120816856622696 
2411	 0.120910428464413 
2412	 0.121147513389587 
2413	 0.121351063251495 
2414	 0.121582828462124 
2415	 0.122051313519478 
2416	 0.122251369059086 
2417	 0.1220922768116 
2418	 0.12227725237608 
2419	 0.122656062245369 
2420	 0.122900500893593 
2421	 0.123395413160324 
2422	 0.123449645936489 
2423	 0.122973725199699 
2424	 0.12303426861763 
2425	 0.12321550399065 
2426	 0.123238317668438 
2427	 0.123466707766056 
2428	 0.123700238764286 
2429	 0.123871922492981 
2430	 0.123672917485237 
2431	 0.123440578579903 
2432	 0.123240746557713 
2433	 0.122495710849762 
2434	 0.122351266443729 
2435	 0.122772671282291 
2436	 0.122805528342724 
2437	 0.122801564633846 
2438	 0.122736744582653 
2439	 0.122470937669277 
2440	 0.122477956116199 
2441	 0.122709654271603 
2442	 0.122515790164471 
2443	 0.122292473912239 
2444	 0.122075617313385 
2445	 0.12136048078537 
2446	 0.12131816893816 
2447	 0.121769182384014 
2448	 0.121880203485489 
2449	 0.122185595333576 
2450	 0.12209515273571 
2451	 0.121612802147865 
2452	 0.121553897857666 
2453	 0.121548891067505 
2454	 0.121333859860897 
2455	 0.121542930603027 
2456	 0.121404379606247 
2457	 0.120962493121624 
2458	 0.120443999767303 
2459	 0.119676008820534 
2460	 0.118741884827614 
2461	 0.117904081940651 
2462	 0.117698803544044 
2463	 0.117775551974773 
2464	 0.118715345859528 
2465	 0.118972361087799 
2466	 0.118941336870193 
2467	 0.118819817900658 
2468	 0.117666162550449 
2469	 0.117394670844078 
2470	 0.11821872740984 
2471	 0.118149556219578 
2472	 0.118006996810436 
2473	 0.117834232747555 
2474	 0.116677157580853 
2475	 0.116123557090759 
2476	 0.11640589684248 
2477	 0.116137534379959 
2478	 0.115554697811604 
2479	 0.115173064172268 
2480	 0.114717952907085 
2481	 0.114194892346859 
2482	 0.113478273153305 
2483	 0.11335226893425 
2484	 0.113476350903511 
2485	 0.113547407090664 
2486	 0.114570282399654 
2487	 0.114521272480488 
2488	 0.113239675760269 
2489	 0.11307967454195 
2490	 0.112709164619446 
2491	 0.113274119794369 
2492	 0.115815483033657 
2493	 0.116167843341827 
2494	 0.115466453135014 
2495	 0.115729801356792 
2496	 0.115528538823128 
2497	 0.11495441198349 
2498	 0.114976912736893 
2499	 0.114695608615875 
2500	 0.112740322947502 
