
Text conversion of header file \A_MEDIDAS\PROJETOS\BRASIL\BLOCO GAVIAO\JACOBINA\CANIF27\sco\CANIF27_033.20_00003.asd.ref
 -------------------------------------------------------------
                                                                                                                                                            
The instrument number was  16586/1
New ASD spectrum file: Program version = 6.00 file version = 1.00
Spectrum saved: 10/16/2018 at 10:23:57
VNIR integration time : 34
VNIR channel 1 wavelength = 350 wavelength step = 1
There were 50 samples per data value
xmin = 350 xmax= 2500
ymin= 0 ymax= 1.25
The instrument digitizes spectral values to 16 bits
SWIR1 gain was 203 offset was 2094
SWIR2 gain was 499 offset was 2264
Join between VNIR and SWIR1 was 1000 nm
Join between SWIR1 and SWIR2 was 1830 nm
Absolute Reflectance is Enabled
The Absolute Reflectance File is abs165861.ref
VNIR dark signal subtracted
50 dark measurements taken Tue Oct 16 10:13:56 2018
DCC value was 0
Data is compared to a white reference:
60 white reference measurements taken Tue Oct 16 10:14:04 2018
There was no foreoptic attached
Spectrum file is reflectance data
GPS-Latitude is S0
GPS-Longitude is E0
GPS-Altitude is 0
GPS-UTC is Wed Dec 31 17:00:00 1969

Smart Detector
Serial#  0
Signal (A)  0.000E00
Dark (A)  0.000E00
Ref (A)  0.000E00
Status  0 - Uninitialized
Gain  E-4
Averaging  0
Temp (C)  0.0
Humid (%)  0.0

Reflectance Absolute
Wavelength	CANIF27_33.20_00003.asd.ref
350	 0.18678891658783 
351	 0.185214906930923 
352	 0.184726595878601 
353	 0.191153362393379 
354	 0.20117150247097 
355	 0.18947622179985 
356	 0.185781896114349 
357	 0.188337817788124 
358	 0.186873748898506 
359	 0.182921037077904 
360	 0.189314156770706 
361	 0.199296921491623 
362	 0.195448413491249 
363	 0.188948214054108 
364	 0.188581094145775 
365	 0.193928316235542 
366	 0.193820685148239 
367	 0.189716503024101 
368	 0.189271211624146 
369	 0.195690587162971 
370	 0.196800127625465 
371	 0.192353308200836 
372	 0.188628107309341 
373	 0.192386075854301 
374	 0.194055140018463 
375	 0.196331262588501 
376	 0.197634041309357 
377	 0.191563636064529 
378	 0.19000731408596 
379	 0.19230143725872 
380	 0.195182114839554 
381	 0.195701330900192 
382	 0.194889008998871 
383	 0.194993183016777 
384	 0.197216868400574 
385	 0.194671303033829 
386	 0.193010687828064 
387	 0.19398558139801 
388	 0.195202007889748 
389	 0.196232989430428 
390	 0.195365533232689 
391	 0.192946180701256 
392	 0.193823680281639 
393	 0.193773716688156 
394	 0.193129658699036 
395	 0.193245500326157 
396	 0.192940413951874 
397	 0.192977800965309 
398	 0.193465143442154 
399	 0.193903520703316 
400	 0.193579584360123 
401	 0.193194895982742 
402	 0.193163111805916 
403	 0.193015292286873 
404	 0.193166673183441 
405	 0.192888528108597 
406	 0.19172790646553 
407	 0.191568121314049 
408	 0.191538736224175 
409	 0.191233575344086 
410	 0.190740093588829 
411	 0.191286668181419 
412	 0.191399544477463 
413	 0.190606206655502 
414	 0.190477207303047 
415	 0.190655574202538 
416	 0.190441012382507 
417	 0.189595997333527 
418	 0.189965635538101 
419	 0.189840406179428 
420	 0.189456805586815 
421	 0.190055564045906 
422	 0.189614415168762 
423	 0.189311683177948 
424	 0.189531251788139 
425	 0.188907489180565 
426	 0.188955709338188 
427	 0.189230486750603 
428	 0.189080625772476 
429	 0.189051613211632 
430	 0.18889856338501 
431	 0.188633695244789 
432	 0.188461169600487 
433	 0.188778042793274 
434	 0.188994169235229 
435	 0.188793197274208 
436	 0.188396692276001 
437	 0.188390791416168 
438	 0.188927844166756 
439	 0.189716324210167 
440	 0.189471244812012 
441	 0.189165994524956 
442	 0.189176246523857 
443	 0.189389869570732 
444	 0.189391851425171 
445	 0.189326554536819 
446	 0.189299076795578 
447	 0.189208194613457 
448	 0.18930995464325 
449	 0.189558669924736 
450	 0.189761281013489 
451	 0.189495712518692 
452	 0.189521506428719 
453	 0.189802721142769 
454	 0.189735144376755 
455	 0.189664170145988 
456	 0.189782708883286 
457	 0.190002530813217 
458	 0.189717099070549 
459	 0.189702913165092 
460	 0.189754664897919 
461	 0.189540222287178 
462	 0.189792513847351 
463	 0.189984038472176 
464	 0.189921855926514 
465	 0.189770370721817 
466	 0.189654409885406 
467	 0.189778462052345 
468	 0.190118283033371 
469	 0.190137878060341 
470	 0.190090730786324 
471	 0.190011352300644 
472	 0.18987862765789 
473	 0.189782336354256 
474	 0.18986214697361 
475	 0.190050914883614 
476	 0.19007483124733 
477	 0.190319821238518 
478	 0.190466567873955 
479	 0.190343022346497 
480	 0.190594032406807 
481	 0.190805837512016 
482	 0.190952435135841 
483	 0.191166058182716 
484	 0.191247403621674 
485	 0.191273704171181 
486	 0.191363990306854 
487	 0.191655352711678 
488	 0.191813498735428 
489	 0.191874995827675 
490	 0.191957786679268 
491	 0.192074030637741 
492	 0.192315593361855 
493	 0.192598402500153 
494	 0.192741483449936 
495	 0.19281080365181 
496	 0.192918211221695 
497	 0.193081170320511 
498	 0.193146109580994 
499	 0.193326562643051 
500	 0.193475693464279 
501	 0.193438336253166 
502	 0.1935024112463 
503	 0.19366879761219 
504	 0.193838477134705 
505	 0.193857640028 
506	 0.193905189633369 
507	 0.193839102983475 
508	 0.193686157464981 
509	 0.193956956267357 
510	 0.194197729229927 
511	 0.194249600172043 
512	 0.194129168987274 
513	 0.194161370396614 
514	 0.194211363792419 
515	 0.194201335310936 
516	 0.194147735834122 
517	 0.194205656647682 
518	 0.194270431995392 
519	 0.19423796236515 
520	 0.194145798683167 
521	 0.194061800837517 
522	 0.194016516208649 
523	 0.194013953208923 
524	 0.194043517112732 
525	 0.194032087922096 
526	 0.19395512342453 
527	 0.193855166435242 
528	 0.193770408630371 
529	 0.193657845258713 
530	 0.193503394722939 
531	 0.19348369538784 
532	 0.193330824375153 
533	 0.193090543150902 
534	 0.192988574504852 
535	 0.192853942513466 
536	 0.192738026380539 
537	 0.192654669284821 
538	 0.192509829998016 
539	 0.192328929901123 
540	 0.19215390086174 
541	 0.192020207643509 
542	 0.191911160945892 
543	 0.191733449697495 
544	 0.191504523158073 
545	 0.191329091787338 
546	 0.191130518913269 
547	 0.19089663028717 
548	 0.190645337104797 
549	 0.190436661243439 
550	 0.190250307321548 
551	 0.190015316009521 
552	 0.18968340754509 
553	 0.189462810754776 
554	 0.189244568347931 
555	 0.18900965154171 
556	 0.1888577491045 
557	 0.188732758164406 
558	 0.188552156090736 
559	 0.188277065753937 
560	 0.187998384237289 
561	 0.187686949968338 
562	 0.187395989894867 
563	 0.187194600701332 
564	 0.186927020549774 
565	 0.186658620834351 
566	 0.186423242092133 
567	 0.186180710792542 
568	 0.185957536101341 
569	 0.185752645134926 
570	 0.185554906725883 
571	 0.185349673032761 
572	 0.185092091560364 
573	 0.184773221611977 
574	 0.184419468045235 
575	 0.184117406606674 
576	 0.183804452419281 
577	 0.183462411165237 
578	 0.183192506432533 
579	 0.182902917265892 
580	 0.18256351351738 
581	 0.182179316878319 
582	 0.181815162301064 
583	 0.181418389081955 
584	 0.18104712665081 
585	 0.180844709277153 
586	 0.180698782205582 
587	 0.18054011464119 
588	 0.180324256420135 
589	 0.180041924118996 
590	 0.17967426776886 
591	 0.17932340502739 
592	 0.179092779755592 
593	 0.178815990686417 
594	 0.178510010242462 
595	 0.17819844186306 
596	 0.177893489599228 
597	 0.177565410733223 
598	 0.177208781242371 
599	 0.176850005984306 
600	 0.176590442657471 
601	 0.176372081041336 
602	 0.176149025559425 
603	 0.175892919301987 
604	 0.175681903958321 
605	 0.175453200936317 
606	 0.175196394324303 
607	 0.174979403614998 
608	 0.174780428409576 
609	 0.174612417817116 
610	 0.174469038844109 
611	 0.174256771802902 
612	 0.174060299992561 
613	 0.173880308866501 
614	 0.173679381608963 
615	 0.173570603132248 
616	 0.173466607928276 
617	 0.173303455114365 
618	 0.17308346927166 
619	 0.172997355461121 
620	 0.172956198453903 
621	 0.172841116786003 
622	 0.172757297754288 
623	 0.172681629657745 
624	 0.172627344727516 
625	 0.17262302339077 
626	 0.172561004757881 
627	 0.172507330775261 
628	 0.172505468130112 
629	 0.172518089413643 
630	 0.17255474627018 
631	 0.17258632183075 
632	 0.172593832015991 
633	 0.172645196318626 
634	 0.172722071409225 
635	 0.172797173261642 
636	 0.172844931483269 
637	 0.172917366027832 
638	 0.173033058643341 
639	 0.173167452216148 
640	 0.173223555088043 
641	 0.173332795500755 
642	 0.173410803079605 
643	 0.173362135887146 
644	 0.173377677798271 
645	 0.173408508300781 
646	 0.17343881726265 
647	 0.17348624765873 
648	 0.173548728227615 
649	 0.173666775226593 
650	 0.173844411969185 
651	 0.174005821347237 
652	 0.174178898334503 
653	 0.174364671111107 
654	 0.174551799893379 
655	 0.174710020422935 
656	 0.174834966659546 
657	 0.174976915121078 
658	 0.175214782357216 
659	 0.175429970026016 
660	 0.175635457038879 
661	 0.175867035984993 
662	 0.176163986325264 
663	 0.176480650901794 
664	 0.176771923899651 
665	 0.177007094025612 
666	 0.177203610539436 
667	 0.17746639251709 
668	 0.177801936864853 
669	 0.178134366869926 
670	 0.17840088903904 
671	 0.178656488656998 
672	 0.178919970989227 
673	 0.179110899567604 
674	 0.179428443312645 
675	 0.179752930998802 
676	 0.179920613765717 
677	 0.179992258548737 
678	 0.180056840181351 
679	 0.18013046681881 
680	 0.180177792906761 
681	 0.18020111322403 
682	 0.180194690823555 
683	 0.180166095495224 
684	 0.180140256881714 
685	 0.180204078555107 
686	 0.180349871516228 
687	 0.180554911494255 
688	 0.180864006280899 
689	 0.181110516190529 
690	 0.181279480457306 
691	 0.181446984410286 
692	 0.181657493114471 
693	 0.181829452514648 
694	 0.181990697979927 
695	 0.182304456830025 
696	 0.182620659470558 
697	 0.18292111158371 
698	 0.183229297399521 
699	 0.183593958616257 
700	 0.184030279517174 
701	 0.184441804885864 
702	 0.184725940227509 
703	 0.185013100504875 
704	 0.185326918959618 
705	 0.1856559664011 
706	 0.185964494943619 
707	 0.186265900731087 
708	 0.186554729938507 
709	 0.186827927827835 
710	 0.187089055776596 
711	 0.187358543276787 
712	 0.187639534473419 
713	 0.187918201088905 
714	 0.188142880797386 
715	 0.188367262482643 
716	 0.188627108931541 
717	 0.18892115354538 
718	 0.189064681529999 
719	 0.189267978072166 
720	 0.189559414982796 
721	 0.189696535468102 
722	 0.189895406365395 
723	 0.190133288502693 
724	 0.190341517329216 
725	 0.190466016530991 
726	 0.190594851970673 
727	 0.190772220492363 
728	 0.191006124019623 
729	 0.191255241632462 
730	 0.191326037049294 
731	 0.191324457526207 
732	 0.19155640900135 
733	 0.19177283346653 
734	 0.191924303770065 
735	 0.192004144191742 
736	 0.192026287317276 
737	 0.192155107855797 
738	 0.192286819219589 
739	 0.19234111905098 
740	 0.192526936531067 
741	 0.192634910345078 
742	 0.19265778362751 
743	 0.192688480019569 
744	 0.19281792640686 
745	 0.192927122116089 
746	 0.193012252449989 
747	 0.193160265684128 
748	 0.193187192082405 
749	 0.193240657448769 
750	 0.193376123905182 
751	 0.193437948822975 
752	 0.193504229187965 
753	 0.193588048219681 
754	 0.193671599030495 
755	 0.19368714094162 
756	 0.193762108683586 
757	 0.193840488791466 
758	 0.193824470043182 
759	 0.19381220638752 
760	 0.193906664848328 
761	 0.194051280617714 
762	 0.194088459014893 
763	 0.194117546081543 
764	 0.194182097911835 
765	 0.194258078932762 
766	 0.194248020648956 
767	 0.194225251674652 
768	 0.194174155592918 
769	 0.19411937892437 
770	 0.194227173924446 
771	 0.194255724549294 
772	 0.194263234734535 
773	 0.194346413016319 
774	 0.194339379668236 
775	 0.194311901926994 
776	 0.194300666451454 
777	 0.194315955042839 
778	 0.194352194666862 
779	 0.194345891475677 
780	 0.19430036842823 
781	 0.194284722208977 
782	 0.194339066743851 
783	 0.194346308708191 
784	 0.194281831383705 
785	 0.194289162755013 
786	 0.19429537653923 
787	 0.194265216588974 
788	 0.19419176876545 
789	 0.194108530879021 
790	 0.194072231650352 
791	 0.194120332598686 
792	 0.194222003221512 
793	 0.194146931171417 
794	 0.194039613008499 
795	 0.19401042163372 
796	 0.194099217653275 
797	 0.194113299250603 
798	 0.194077655673027 
799	 0.194021999835968 
800	 0.193968072533607 
801	 0.193934679031372 
802	 0.193941906094551 
803	 0.193982437252998 
804	 0.194017335772514 
805	 0.194003134965897 
806	 0.193991988897324 
807	 0.194016471505165 
808	 0.194040089845657 
809	 0.194050267338753 
810	 0.194039463996887 
811	 0.194018080830574 
812	 0.194039776921272 
813	 0.194006487727165 
814	 0.193989351391792 
815	 0.19405272603035 
816	 0.194001421332359 
817	 0.193973049521446 
818	 0.193981245160103 
819	 0.193981379270554 
820	 0.194001272320747 
821	 0.193964242935181 
822	 0.193911626935005 
823	 0.193944603204727 
824	 0.193945989012718 
825	 0.193949237465858 
826	 0.193943098187447 
827	 0.193875715136528 
828	 0.193855747580528 
829	 0.193835139274597 
830	 0.193786159157753 
831	 0.193736001849175 
832	 0.19371509552002 
833	 0.193753197789192 
834	 0.193794593214989 
835	 0.19366367161274 
836	 0.193653032183647 
837	 0.193666949868202 
838	 0.193616941571236 
839	 0.193627700209618 
840	 0.193593397736549 
841	 0.193560361862183 
842	 0.193566307425499 
843	 0.193503960967064 
844	 0.1935123950243 
845	 0.193513557314873 
846	 0.193430840969086 
847	 0.193448230624199 
848	 0.193420693278313 
849	 0.193338662385941 
850	 0.193264991044998 
851	 0.193296507000923 
852	 0.193349286913872 
853	 0.193399161100388 
854	 0.193434298038483 
855	 0.193342611193657 
856	 0.193227529525757 
857	 0.193136662244797 
858	 0.1930782943964 
859	 0.19308502972126 
860	 0.193088799715042 
861	 0.193064764142036 
862	 0.193026483058929 
863	 0.192990750074387 
864	 0.192960768938065 
865	 0.192926749587059 
866	 0.192874237895012 
867	 0.192821279168129 
868	 0.192735180258751 
869	 0.192651078104973 
870	 0.192651227116585 
871	 0.192727878689766 
872	 0.192737683653831 
873	 0.192676335573196 
874	 0.192655101418495 
875	 0.192518919706345 
876	 0.192515850067139 
877	 0.192633599042892 
878	 0.19259874522686 
879	 0.192459657788277 
880	 0.192362278699875 
881	 0.192362010478973 
882	 0.192397266626358 
883	 0.192363142967224 
884	 0.192290738224983 
885	 0.192249089479446 
886	 0.19229394197464 
887	 0.192224010825157 
888	 0.192139267921448 
889	 0.192077040672302 
890	 0.191983729600906 
891	 0.191930815577507 
892	 0.191909343004227 
893	 0.191893145442009 
894	 0.191856324672699 
895	 0.191820487380028 
896	 0.191804572939873 
897	 0.191824153065681 
898	 0.191876813769341 
899	 0.191866770386696 
900	 0.191771194338799 
901	 0.191645041108131 
902	 0.191587135195732 
903	 0.191593110561371 
904	 0.191565647721291 
905	 0.19147415459156 
906	 0.19136655330658 
907	 0.191359013319016 
908	 0.191358134150505 
909	 0.191330701112747 
910	 0.191300809383392 
911	 0.191280364990234 
912	 0.191204413771629 
913	 0.1910669952631 
914	 0.190925106406212 
915	 0.190915212035179 
916	 0.190950244665146 
917	 0.190958499908447 
918	 0.19091360270977 
919	 0.190900102257729 
920	 0.190843284130096 
921	 0.190762296319008 
922	 0.190702021121979 
923	 0.190633028745651 
924	 0.190608754754066 
925	 0.190616935491562 
926	 0.190614506602287 
927	 0.190550193190575 
928	 0.190501898527145 
929	 0.190478459000587 
930	 0.19045002758503 
931	 0.190360367298126 
932	 0.19022724032402 
933	 0.19020514190197 
934	 0.190284460783005 
935	 0.19016732275486 
936	 0.190027147531509 
937	 0.189992696046829 
938	 0.190048888325691 
939	 0.19002366065979 
940	 0.18988436460495 
941	 0.18977963924408 
942	 0.189758151769638 
943	 0.189743191003799 
944	 0.189694494009018 
945	 0.189607381820679 
946	 0.189504593610764 
947	 0.189412713050842 
948	 0.189300656318665 
949	 0.189187198877335 
950	 0.189068928360939 
951	 0.188927471637726 
952	 0.188728988170624 
953	 0.188614279031754 
954	 0.18854433298111 
955	 0.188428595662117 
956	 0.188223585486412 
957	 0.188116699457169 
958	 0.188032224774361 
959	 0.187884077429771 
960	 0.187688782811165 
961	 0.187546879053116 
962	 0.187471151351929 
963	 0.187445387244225 
964	 0.187442183494568 
965	 0.187444433569908 
966	 0.187468588352203 
967	 0.187494829297066 
968	 0.187489777803421 
969	 0.187457680702209 
970	 0.187588781118393 
971	 0.187667936086655 
972	 0.187539085745811 
973	 0.187638014554977 
974	 0.187588661909103 
975	 0.187573134899139 
976	 0.187642425298691 
977	 0.18747690320015 
978	 0.187526628375053 
979	 0.187625527381897 
980	 0.187589198350906 
981	 0.18738280236721 
982	 0.187284022569656 
983	 0.187282085418701 
984	 0.187248438596725 
985	 0.187097817659378 
986	 0.187065541744232 
987	 0.186944410204887 
988	 0.186883300542831 
989	 0.186936467885971 
990	 0.186812505125999 
991	 0.186717852950096 
992	 0.18662191927433 
993	 0.186524242162704 
994	 0.186482653021812 
995	 0.186473369598389 
996	 0.186404883861542 
997	 0.186294987797737 
998	 0.186215966939926 
999	 0.186202690005302 
1000	 0.185962468385696 
1001	 0.179188102483749 
1002	 0.179115042090416 
1003	 0.178934618830681 
1004	 0.178753331303596 
1005	 0.178736209869385 
1006	 0.178765192627907 
1007	 0.178713440895081 
1008	 0.178709998726845 
1009	 0.178649261593819 
1010	 0.178468823432922 
1011	 0.178382903337479 
1012	 0.178352296352386 
1013	 0.178282260894775 
1014	 0.178272932767868 
1015	 0.178211331367493 
1016	 0.178129434585571 
1017	 0.177968055009842 
1018	 0.177831381559372 
1019	 0.177622750401497 
1020	 0.177474915981293 
1021	 0.177429899573326 
1022	 0.177350014448166 
1023	 0.177333623170853 
1024	 0.177317231893539 
1025	 0.177336156368256 
1026	 0.177265614271164 
1027	 0.177178040146828 
1028	 0.177091747522354 
1029	 0.176944196224213 
1030	 0.176830723881721 
1031	 0.176738530397415 
1032	 0.176614582538605 
1033	 0.176497548818588 
1034	 0.176392391324043 
1035	 0.17630210518837 
1036	 0.176213592290878 
1037	 0.176114827394485 
1038	 0.176052376627922 
1039	 0.175974681973457 
1040	 0.175894945859909 
1041	 0.175855711102486 
1042	 0.175864636898041 
1043	 0.175760820508003 
1044	 0.1756382137537 
1045	 0.175519824028015 
1046	 0.175256490707397 
1047	 0.175090491771698 
1048	 0.175031274557114 
1049	 0.174988269805908 
1050	 0.174969658255577 
1051	 0.174919039011002 
1052	 0.174818843603134 
1053	 0.174721911549568 
1054	 0.174631506204605 
1055	 0.174546465277672 
1056	 0.174460664391518 
1057	 0.17438405752182 
1058	 0.174268782138824 
1059	 0.174210354685783 
1060	 0.174196407198906 
1061	 0.174161717295647 
1062	 0.174169659614563 
1063	 0.174112364649773 
1064	 0.173989519476891 
1065	 0.173933982849121 
1066	 0.173802569508553 
1067	 0.173685982823372 
1068	 0.173603415489197 
1069	 0.173526406288147 
1070	 0.173505157232285 
1071	 0.173400804400444 
1072	 0.173260495066643 
1073	 0.173137038946152 
1074	 0.172966852784157 
1075	 0.172786608338356 
1076	 0.172730937600136 
1077	 0.172692716121674 
1078	 0.172704964876175 
1079	 0.17272025346756 
1080	 0.172691643238068 
1081	 0.172639980912209 
1082	 0.172530427575111 
1083	 0.172418907284737 
1084	 0.172317981719971 
1085	 0.172261461615562 
1086	 0.172197490930557 
1087	 0.172145664691925 
1088	 0.172077432274818 
1089	 0.172027230262756 
1090	 0.171913012862206 
1091	 0.171849459409714 
1092	 0.171822980046272 
1093	 0.171754345297813 
1094	 0.171658024191856 
1095	 0.171521902084351 
1096	 0.171423628926277 
1097	 0.171336561441422 
1098	 0.171312853693962 
1099	 0.171287506818771 
1100	 0.171156689524651 
1101	 0.171067029237747 
1102	 0.170973509550095 
1103	 0.170868307352066 
1104	 0.170757383108139 
1105	 0.17068162560463 
1106	 0.17055207490921 
1107	 0.170429855585098 
1108	 0.170367389917374 
1109	 0.170315399765968 
1110	 0.170259982347488 
1111	 0.170253351330757 
1112	 0.17021270096302 
1113	 0.170124381780624 
1114	 0.170076712965965 
1115	 0.169938027858734 
1116	 0.16979843378067 
1117	 0.169709637761116 
1118	 0.169656604528427 
1119	 0.169572561979294 
1120	 0.169543117284775 
1121	 0.169467255473137 
1122	 0.169325783848763 
1123	 0.169216334819794 
1124	 0.169069528579712 
1125	 0.168938845396042 
1126	 0.168900430202484 
1127	 0.168843805789948 
1128	 0.168790727853775 
1129	 0.168794587254524 
1130	 0.168722257018089 
1131	 0.168604984879494 
1132	 0.168529316782951 
1133	 0.168459266424179 
1134	 0.168379217386246 
1135	 0.168317750096321 
1136	 0.168243378400803 
1137	 0.168112277984619 
1138	 0.167951971292496 
1139	 0.167818993330002 
1140	 0.167714655399323 
1141	 0.167656108736992 
1142	 0.16765795648098 
1143	 0.167610421776772 
1144	 0.167514473199844 
1145	 0.167410627007484 
1146	 0.167316690087318 
1147	 0.167234510183334 
1148	 0.16718153655529 
1149	 0.167120203375816 
1150	 0.167066484689713 
1151	 0.166991665959358 
1152	 0.166906669735909 
1153	 0.166822597384453 
1154	 0.166727930307388 
1155	 0.166634932160378 
1156	 0.166497886180878 
1157	 0.166375011205673 
1158	 0.166307806968689 
1159	 0.166274532675743 
1160	 0.166261360049248 
1161	 0.166216716170311 
1162	 0.166108369827271 
1163	 0.166009292006493 
1164	 0.165932908654213 
1165	 0.165863066911697 
1166	 0.165788978338242 
1167	 0.165727436542511 
1168	 0.165657043457031 
1169	 0.16557103395462 
1170	 0.165498077869415 
1171	 0.165421441197395 
1172	 0.165391504764557 
1173	 0.165336608886719 
1174	 0.165274873375893 
1175	 0.165225356817245 
1176	 0.165141478180885 
1177	 0.165086790919304 
1178	 0.165019795298576 
1179	 0.16496904194355 
1180	 0.164973214268684 
1181	 0.164914295077324 
1182	 0.164830669760704 
1183	 0.164775624871254 
1184	 0.164726704359055 
1185	 0.164665699005127 
1186	 0.164621442556381 
1187	 0.164561808109283 
1188	 0.164490461349487 
1189	 0.164398416876793 
1190	 0.164329081773758 
1191	 0.164286360144615 
1192	 0.164252236485481 
1193	 0.164192348718643 
1194	 0.164120063185692 
1195	 0.164078965783119 
1196	 0.163991123437881 
1197	 0.163890838623047 
1198	 0.16384282708168 
1199	 0.163756355643272 
1200	 0.163661643862724 
1201	 0.163612350821495 
1202	 0.16357596218586 
1203	 0.163550525903702 
1204	 0.163509547710419 
1205	 0.163502886891365 
1206	 0.163468703627586 
1207	 0.163413166999817 
1208	 0.163334429264069 
1209	 0.163232266902924 
1210	 0.163120850920677 
1211	 0.163049682974815 
1212	 0.162979811429977 
1213	 0.162924543023109 
1214	 0.162896648049355 
1215	 0.162830412387848 
1216	 0.162748709321022 
1217	 0.162697240710258 
1218	 0.162655293941498 
1219	 0.162598863244057 
1220	 0.162518963217735 
1221	 0.162477090954781 
1222	 0.162464082241058 
1223	 0.162411108613014 
1224	 0.162364885210991 
1225	 0.162297278642654 
1226	 0.162185922265053 
1227	 0.162090867757797 
1228	 0.162045106291771 
1229	 0.16201263666153 
1230	 0.161945506930351 
1231	 0.161892086267471 
1232	 0.161837115883827 
1233	 0.161733523011208 
1234	 0.161637455224991 
1235	 0.161529004573822 
1236	 0.161404550075531 
1237	 0.161328360438347 
1238	 0.161270275712013 
1239	 0.161263212561607 
1240	 0.161216467618942 
1241	 0.161188945174217 
1242	 0.161111637949944 
1243	 0.16097292304039 
1244	 0.160900145769119 
1245	 0.160840779542923 
1246	 0.160778999328613 
1247	 0.160757571458817 
1248	 0.160693809390068 
1249	 0.160637781023979 
1250	 0.160575047135353 
1251	 0.160495549440384 
1252	 0.160484954714775 
1253	 0.160490497946739 
1254	 0.160431027412415 
1255	 0.160370022058487 
1256	 0.160316422581673 
1257	 0.160239413380623 
1258	 0.160198286175728 
1259	 0.160168081521988 
1260	 0.16019082069397 
1261	 0.16015450656414 
1262	 0.160093173384666 
1263	 0.160036534070969 
1264	 0.159958466887474 
1265	 0.159897238016129 
1266	 0.159833490848541 
1267	 0.159795045852661 
1268	 0.159784868359566 
1269	 0.159743413329124 
1270	 0.159712076187134 
1271	 0.159667119383812 
1272	 0.159578904509544 
1273	 0.159499332308769 
1274	 0.159465253353119 
1275	 0.159448266029358 
1276	 0.159383893013 
1277	 0.159314423799515 
1278	 0.159240216016769 
1279	 0.159122064709663 
1280	 0.159053564071655 
1281	 0.159054577350616 
1282	 0.15897935628891 
1283	 0.158859714865685 
1284	 0.158794835209846 
1285	 0.15871961414814 
1286	 0.15864871442318 
1287	 0.158653035759926 
1288	 0.158577501773834 
1289	 0.158421143889427 
1290	 0.158317923545837 
1291	 0.1582210958004 
1292	 0.158097863197327 
1293	 0.158016085624695 
1294	 0.157952785491943 
1295	 0.157862737774849 
1296	 0.157760605216026 
1297	 0.157683610916138 
1298	 0.157669365406036 
1299	 0.157668828964233 
1300	 0.157639518380165 
1301	 0.157565578818321 
1302	 0.157456547021866 
1303	 0.157384023070335 
1304	 0.157301336526871 
1305	 0.157225161790848 
1306	 0.157189026474953 
1307	 0.157127231359482 
1308	 0.157003745436668 
1309	 0.156943246722221 
1310	 0.156951174139977 
1311	 0.156893998384476 
1312	 0.156817108392715 
1313	 0.156773269176483 
1314	 0.15671817958355 
1315	 0.15665964782238 
1316	 0.156632736325264 
1317	 0.15658175945282 
1318	 0.156508505344391 
1319	 0.156417176127434 
1320	 0.156362637877464 
1321	 0.156320750713348 
1322	 0.156239777803421 
1323	 0.156198143959045 
1324	 0.156165570020676 
1325	 0.15607838332653 
1326	 0.156034201383591 
1327	 0.156037360429764 
1328	 0.155986472964287 
1329	 0.155908644199371 
1330	 0.155864670872688 
1331	 0.155823305249214 
1332	 0.155754432082176 
1333	 0.155692413449287 
1334	 0.155634179711342 
1335	 0.155519396066666 
1336	 0.155470639467239 
1337	 0.155516549944878 
1338	 0.155472084879875 
1339	 0.155373051762581 
1340	 0.155341744422913 
1341	 0.155343785881996 
1342	 0.155249252915382 
1343	 0.155213981866837 
1344	 0.155194878578186 
1345	 0.155085295438766 
1346	 0.155016019940376 
1347	 0.155010551214218 
1348	 0.155002772808075 
1349	 0.154974207282066 
1350	 0.154930993914604 
1351	 0.154853761196136 
1352	 0.15471313893795 
1353	 0.154628664255142 
1354	 0.154556408524513 
1355	 0.154473766684532 
1356	 0.154416993260384 
1357	 0.15433432161808 
1358	 0.154220759868622 
1359	 0.154120266437531 
1360	 0.154029801487923 
1361	 0.153924778103828 
1362	 0.153820738196373 
1363	 0.153700619935989 
1364	 0.153570964932442 
1365	 0.153428956866264 
1366	 0.153239756822586 
1367	 0.153095260262489 
1368	 0.152968943119049 
1369	 0.152852177619934 
1370	 0.152711033821106 
1371	 0.152619749307632 
1372	 0.152481868863106 
1373	 0.152289062738419 
1374	 0.152124732732773 
1375	 0.151966646313667 
1376	 0.151820465922356 
1377	 0.151694968342781 
1378	 0.151573017239571 
1379	 0.151418343186378 
1380	 0.151234567165375 
1381	 0.151027321815491 
1382	 0.150788843631744 
1383	 0.150553375482559 
1384	 0.15021750330925 
1385	 0.149856641888618 
1386	 0.149385422468185 
1387	 0.14887747168541 
1388	 0.148184582591057 
1389	 0.147428870201111 
1390	 0.146463289856911 
1391	 0.145319566130638 
1392	 0.144023567438126 
1393	 0.142496794462204 
1394	 0.140944555401802 
1395	 0.139209538698196 
1396	 0.137504741549492 
1397	 0.135686710476875 
1398	 0.133982181549072 
1399	 0.132253497838974 
1400	 0.130631268024445 
1401	 0.129168957471848 
1402	 0.127830728888512 
1403	 0.126646980643272 
1404	 0.125591948628426 
1405	 0.124648466706276 
1406	 0.123842284083366 
1407	 0.123160824179649 
1408	 0.122585400938988 
1409	 0.12214208394289 
1410	 0.121841505169868 
1411	 0.121772892773151 
1412	 0.121821217238903 
1413	 0.122217461466789 
1414	 0.12288760393858 
1415	 0.123760879039764 
1416	 0.124938108026981 
1417	 0.126217842102051 
1418	 0.127770766615868 
1419	 0.129261568188667 
1420	 0.130964517593384 
1421	 0.132482185959816 
1422	 0.133996814489365 
1423	 0.135375395417213 
1424	 0.136696517467499 
1425	 0.137858912348747 
1426	 0.138902500271797 
1427	 0.139828443527222 
1428	 0.140595093369484 
1429	 0.141298145055771 
1430	 0.141882017254829 
1431	 0.142419844865799 
1432	 0.142868563532829 
1433	 0.143279105424881 
1434	 0.143635660409927 
1435	 0.143930837512016 
1436	 0.144190013408661 
1437	 0.144422680139542 
1438	 0.144633919000626 
1439	 0.144781932234764 
1440	 0.14491967856884 
1441	 0.145057559013367 
1442	 0.1451465934515 
1443	 0.145245507359505 
1444	 0.145304709672928 
1445	 0.14528925716877 
1446	 0.145311370491982 
1447	 0.145321398973465 
1448	 0.145332500338554 
1449	 0.145366504788399 
1450	 0.145360231399536 
1451	 0.145318865776062 
1452	 0.145289450883865 
1453	 0.145247176289558 
1454	 0.145214930176735 
1455	 0.145183354616165 
1456	 0.145160481333733 
1457	 0.145146504044533 
1458	 0.145116865634918 
1459	 0.145080119371414 
1460	 0.145059123635292 
1461	 0.145046457648277 
1462	 0.14501628279686 
1463	 0.144985035061836 
1464	 0.144959405064583 
1465	 0.144911006093025 
1466	 0.144887432456017 
1467	 0.144890680909157 
1468	 0.144883394241333 
1469	 0.1448964625597 
1470	 0.144872218370438 
1471	 0.144818812608719 
1472	 0.14478687942028 
1473	 0.144725516438484 
1474	 0.144689947366714 
1475	 0.144681394100189 
1476	 0.144680842757225 
1477	 0.144665524363518 
1478	 0.144670069217682 
1479	 0.144662693142891 
1480	 0.144629925489426 
1481	 0.144599735736847 
1482	 0.144584819674492 
1483	 0.1445582062006 
1484	 0.144536361098289 
1485	 0.144511938095093 
1486	 0.144470989704132 
1487	 0.144451275467873 
1488	 0.144430339336395 
1489	 0.144421279430389 
1490	 0.144404679536819 
1491	 0.144361793994904 
1492	 0.144364327192307 
1493	 0.144339144229889 
1494	 0.144296392798424 
1495	 0.144265800714493 
1496	 0.144233107566833 
1497	 0.144207760691643 
1498	 0.144200041890144 
1499	 0.144178286194801 
1500	 0.144137889146805 
1501	 0.144125640392303 
1502	 0.144136026501656 
1503	 0.144110038876534 
1504	 0.144091114401817 
1505	 0.144065484404564 
1506	 0.143987685441971 
1507	 0.143956616520882 
1508	 0.14397956430912 
1509	 0.14394748210907 
1510	 0.143888369202614 
1511	 0.143852829933167 
1512	 0.143802464008331 
1513	 0.143760815262794 
1514	 0.143744006752968 
1515	 0.14371545612812 
1516	 0.143663287162781 
1517	 0.143637448549271 
1518	 0.143638744950294 
1519	 0.143623545765877 
1520	 0.143616065382957 
1521	 0.143588468432426 
1522	 0.143538594245911 
1523	 0.143502056598663 
1524	 0.143461927771568 
1525	 0.143430426716805 
1526	 0.143404349684715 
1527	 0.143374711275101 
1528	 0.143347188830376 
1529	 0.143322914838791 
1530	 0.143301278352737 
1531	 0.143283113837242 
1532	 0.143264770507813 
1533	 0.143219694495201 
1534	 0.143163695931435 
1535	 0.143123775720596 
1536	 0.143087655305862 
1537	 0.143053084611893 
1538	 0.143015444278717 
1539	 0.142962798476219 
1540	 0.142918065190315 
1541	 0.142889142036438 
1542	 0.142854616045952 
1543	 0.142816424369812 
1544	 0.142780512571335 
1545	 0.142726480960846 
1546	 0.142696991562843 
1547	 0.142697334289551 
1548	 0.142635568976402 
1549	 0.142558842897415 
1550	 0.142507389187813 
1551	 0.142457544803619 
1552	 0.142451450228691 
1553	 0.14245817065239 
1554	 0.142425462603569 
1555	 0.142349138855934 
1556	 0.142281755805016 
1557	 0.142245531082153 
1558	 0.142194420099258 
1559	 0.142160788178444 
1560	 0.142130643129349 
1561	 0.142053931951523 
1562	 0.141999885439873 
1563	 0.141953393816948 
1564	 0.141878351569176 
1565	 0.141849860548973 
1566	 0.141813606023788 
1567	 0.141735792160034 
1568	 0.141683310270309 
1569	 0.141630753874779 
1570	 0.141587764024734 
1571	 0.141568243503571 
1572	 0.141523972153664 
1573	 0.14147076010704 
1574	 0.141413643956184 
1575	 0.141334608197212 
1576	 0.141283571720123 
1577	 0.141255006194115 
1578	 0.14120015501976 
1579	 0.141133382916451 
1580	 0.141085505485535 
1581	 0.141026481986046 
1582	 0.141001343727112 
1583	 0.141023203730583 
1584	 0.140991941094398 
1585	 0.140944644808769 
1586	 0.140886142849922 
1587	 0.140806585550308 
1588	 0.140743151307106 
1589	 0.140669837594032 
1590	 0.140632033348083 
1591	 0.140608355402946 
1592	 0.140569865703583 
1593	 0.140561133623123 
1594	 0.140517592430115 
1595	 0.140443131327629 
1596	 0.14038473367691 
1597	 0.140315487980843 
1598	 0.1402637809515 
1599	 0.140238016843796 
1600	 0.140185296535492 
1601	 0.140132367610931 
1602	 0.140060842037201 
1603	 0.139940157532692 
1604	 0.139873877167702 
1605	 0.139822781085968 
1606	 0.139781326055527 
1607	 0.139798179268837 
1608	 0.139765188097954 
1609	 0.139696091413498 
1610	 0.139653563499451 
1611	 0.139593109488487 
1612	 0.139550223946571 
1613	 0.139558881521225 
1614	 0.139514833688736 
1615	 0.139448076486588 
1616	 0.139392957091331 
1617	 0.139290109276772 
1618	 0.139231815934181 
1619	 0.139221966266632 
1620	 0.139172807335854 
1621	 0.139111205935478 
1622	 0.139075979590416 
1623	 0.139042243361473 
1624	 0.13899864256382 
1625	 0.138980805873871 
1626	 0.138930231332779 
1627	 0.138844564557076 
1628	 0.138777822256088 
1629	 0.138697028160095 
1630	 0.138650268316269 
1631	 0.138625502586365 
1632	 0.13857527077198 
1633	 0.138542309403419 
1634	 0.13850300014019 
1635	 0.138447180390358 
1636	 0.138393104076385 
1637	 0.13833649456501 
1638	 0.138279810547829 
1639	 0.138214483857155 
1640	 0.138174429535866 
1641	 0.138167351484299 
1642	 0.138117268681526 
1643	 0.138033479452133 
1644	 0.137973845005035 
1645	 0.137926906347275 
1646	 0.137864843010902 
1647	 0.13780178129673 
1648	 0.137743547558784 
1649	 0.137648120522499 
1650	 0.137596786022186 
1651	 0.137602135539055 
1652	 0.13758173584938 
1653	 0.1375732421875 
1654	 0.137523755431175 
1655	 0.137442260980606 
1656	 0.137366116046906 
1657	 0.137253731489182 
1658	 0.137197762727737 
1659	 0.1371840685606 
1660	 0.137150973081589 
1661	 0.137123003602028 
1662	 0.137091621756554 
1663	 0.137045428156853 
1664	 0.136988133192062 
1665	 0.136958628892899 
1666	 0.136891096830368 
1667	 0.136836320161819 
1668	 0.136817842721939 
1669	 0.136751905083656 
1670	 0.136719658970833 
1671	 0.136662840843201 
1672	 0.136590301990509 
1673	 0.136575698852539 
1674	 0.136536836624146 
1675	 0.136494711041451 
1676	 0.13647186756134 
1677	 0.136404857039452 
1678	 0.136322870850563 
1679	 0.136266186833382 
1680	 0.136220023036003 
1681	 0.136187583208084 
1682	 0.136175975203514 
1683	 0.13615095615387 
1684	 0.136115252971649 
1685	 0.13610765337944 
1686	 0.136086389422417 
1687	 0.136017754673958 
1688	 0.135954022407532 
1689	 0.135865837335587 
1690	 0.135769009590149 
1691	 0.135745018720627 
1692	 0.135711371898651 
1693	 0.135657265782356 
1694	 0.135606721043587 
1695	 0.135514318943024 
1696	 0.13544987142086 
1697	 0.135399356484413 
1698	 0.135343864560127 
1699	 0.135332003235817 
1700	 0.135263010859489 
1701	 0.135150656104088 
1702	 0.135086596012115 
1703	 0.135029405355453 
1704	 0.13499641418457 
1705	 0.135005131363869 
1706	 0.135001763701439 
1707	 0.134938091039658 
1708	 0.134836569428444 
1709	 0.134756878018379 
1710	 0.134677097201347 
1711	 0.134611174464226 
1712	 0.134576886892319 
1713	 0.134525701403618 
1714	 0.134456858038902 
1715	 0.134398370981216 
1716	 0.134370848536491 
1717	 0.134351149201393 
1718	 0.13430055975914 
1719	 0.134215623140335 
1720	 0.134118795394897 
1721	 0.134056478738785 
1722	 0.134004727005959 
1723	 0.133956760168076 
1724	 0.133918464183807 
1725	 0.133827239274979 
1726	 0.133774608373642 
1727	 0.133716225624084 
1728	 0.133665829896927 
1729	 0.133619174361229 
1730	 0.133555084466934 
1731	 0.133484482765198 
1732	 0.133407726883888 
1733	 0.133350133895874 
1734	 0.13328805565834 
1735	 0.133265063166618 
1736	 0.133297294378281 
1737	 0.133263781666756 
1738	 0.133205354213715 
1739	 0.133094593882561 
1740	 0.132988050580025 
1741	 0.132887974381447 
1742	 0.132806584239006 
1743	 0.132767796516418 
1744	 0.132704317569733 
1745	 0.13262514770031 
1746	 0.132601320743561 
1747	 0.132528632879257 
1748	 0.132464751601219 
1749	 0.132506683468819 
1750	 0.13246051967144 
1751	 0.132386296987534 
1752	 0.132346868515015 
1753	 0.132261872291565 
1754	 0.13220526278019 
1755	 0.132149830460548 
1756	 0.132088646292686 
1757	 0.131995588541031 
1758	 0.131865635514259 
1759	 0.131813585758209 
1760	 0.131747990846634 
1761	 0.131664827466011 
1762	 0.131633877754211 
1763	 0.131579726934433 
1764	 0.131530269980431 
1765	 0.131467685103416 
1766	 0.131393179297447 
1767	 0.131358072161675 
1768	 0.131319031119347 
1769	 0.131319522857666 
1770	 0.131346523761749 
1771	 0.131308913230896 
1772	 0.13125467300415 
1773	 0.131154537200928 
1774	 0.131026968359947 
1775	 0.130955159664154 
1776	 0.130874425172806 
1777	 0.130926102399826 
1778	 0.130900695919991 
1779	 0.130944818258286 
1780	 0.130951002240181 
1781	 0.130884334445 
1782	 0.130866035819054 
1783	 0.130803868174553 
1784	 0.130732744932175 
1785	 0.130699381232262 
1786	 0.130653992295265 
1787	 0.130579888820648 
1788	 0.130530327558517 
1789	 0.130469664931297 
1790	 0.130365923047066 
1791	 0.130307003855705 
1792	 0.130277752876282 
1793	 0.130270227789879 
1794	 0.130259141325951 
1795	 0.130214720964432 
1796	 0.130163580179214 
1797	 0.130063712596893 
1798	 0.12999814748764 
1799	 0.129985153675079 
1800	 0.129910990595818 
1801	 0.129878744482994 
1802	 0.129837393760681 
1803	 0.12975649535656 
1804	 0.129763200879097 
1805	 0.129751190543175 
1806	 0.129741698503494 
1807	 0.129760667681694 
1808	 0.129680693149567 
1809	 0.129595726728439 
1810	 0.129550322890282 
1811	 0.129479438066483 
1812	 0.129401877522469 
1813	 0.129285916686058 
1814	 0.129243746399879 
1815	 0.129186034202576 
1816	 0.129151716828346 
1817	 0.12912181019783 
1818	 0.129083380103111 
1819	 0.129066154360771 
1820	 0.12897415459156 
1821	 0.128897875547409 
1822	 0.128810808062553 
1823	 0.128658473491669 
1824	 0.128577589988708 
1825	 0.128526270389557 
1826	 0.128425896167755 
1827	 0.12840324640274 
1828	 0.128423124551773 
1829	 0.128349483013153 
1830	 0.128303378820419 
1831	 0.12723508477211 
1832	 0.127117872238159 
1833	 0.127071484923363 
1834	 0.127089247107506 
1835	 0.127098515629768 
1836	 0.12721660733223 
1837	 0.127197623252869 
1838	 0.127124458551407 
1839	 0.127002358436584 
1840	 0.126846075057983 
1841	 0.126685917377472 
1842	 0.126607537269592 
1843	 0.126617282629013 
1844	 0.126627743244171 
1845	 0.126741945743561 
1846	 0.126726567745209 
1847	 0.126699596643448 
1848	 0.126599356532097 
1849	 0.12645623087883 
1850	 0.126399978995323 
1851	 0.126412242650986 
1852	 0.126424089074135 
1853	 0.126352369785309 
1854	 0.12627512216568 
1855	 0.126246124505997 
1856	 0.126240029931068 
1857	 0.126193583011627 
1858	 0.126178115606308 
1859	 0.126145303249359 
1860	 0.126008674502373 
1861	 0.125930204987526 
1862	 0.125908195972443 
1863	 0.125833183526993 
1864	 0.125725895166397 
1865	 0.125565811991692 
1866	 0.125440567731857 
1867	 0.125270754098892 
1868	 0.125149205327034 
1869	 0.125081971287727 
1870	 0.125089392066002 
1871	 0.125036060810089 
1872	 0.124916151165962 
1873	 0.124794043600559 
1874	 0.12459771335125 
1875	 0.124369472265244 
1876	 0.124099634587765 
1877	 0.123882696032524 
1878	 0.123684756457806 
1879	 0.123522244393826 
1880	 0.123231746256351 
1881	 0.122969672083855 
1882	 0.122716531157494 
1883	 0.122385904192925 
1884	 0.122152909636497 
1885	 0.121987424790859 
1886	 0.121730946004391 
1887	 0.121368087828159 
1888	 0.121018446981907 
1889	 0.120625734329224 
1890	 0.120209738612175 
1891	 0.119844980537891 
1892	 0.119608663022518 
1893	 0.119301699101925 
1894	 0.118956193327904 
1895	 0.118599146604538 
1896	 0.118102565407753 
1897	 0.117727190256119 
1898	 0.117528483271599 
1899	 0.117243856191635 
1900	 0.116975620388985 
1901	 0.116719245910645 
1902	 0.116420447826385 
1903	 0.116094969213009 
1904	 0.115934439003468 
1905	 0.115768350660801 
1906	 0.115564025938511 
1907	 0.115396320819855 
1908	 0.115106962621212 
1909	 0.114857159554958 
1910	 0.114681407809258 
1911	 0.11459818482399 
1912	 0.114428959786892 
1913	 0.114277198910713 
1914	 0.114183194935322 
1915	 0.114011630415916 
1916	 0.113848842680454 
1917	 0.113697677850723 
1918	 0.113544784486294 
1919	 0.113547958433628 
1920	 0.113492652773857 
1921	 0.113405823707581 
1922	 0.113355070352554 
1923	 0.113343201577663 
1924	 0.113197915256023 
1925	 0.113128401339054 
1926	 0.113100543618202 
1927	 0.112976714968681 
1928	 0.112900197505951 
1929	 0.112928725779057 
1930	 0.112939976155758 
1931	 0.112905509769917 
1932	 0.112841345369816 
1933	 0.112786121666431 
1934	 0.112640641629696 
1935	 0.112576365470886 
1936	 0.112594917416573 
1937	 0.112628273665905 
1938	 0.112638115882874 
1939	 0.112580478191376 
1940	 0.112564660608768 
1941	 0.112586177885532 
1942	 0.112591736018658 
1943	 0.112617515027523 
1944	 0.112610295414925 
1945	 0.112535767257214 
1946	 0.112521506845951 
1947	 0.112520806491375 
1948	 0.112528659403324 
1949	 0.112604029476643 
1950	 0.11268775165081 
1951	 0.112691253423691 
1952	 0.112687982618809 
1953	 0.112701289355755 
1954	 0.112749606370926 
1955	 0.112814731895924 
1956	 0.112853899598122 
1957	 0.112896554172039 
1958	 0.112884894013405 
1959	 0.112915724515915 
1960	 0.112951047718525 
1961	 0.113063767552376 
1962	 0.11317516118288 
1963	 0.113211803138256 
1964	 0.113230787217617 
1965	 0.113301418721676 
1966	 0.113335110247135 
1967	 0.113349117338657 
1968	 0.113371849060059 
1969	 0.113383255898952 
1970	 0.113404609262943 
1971	 0.113418407738209 
1972	 0.113458335399628 
1973	 0.11354087293148 
1974	 0.113600671291351 
1975	 0.113594777882099 
1976	 0.113624580204487 
1977	 0.113678753376007 
1978	 0.113755032420158 
1979	 0.113829471170902 
1980	 0.113930568099022 
1981	 0.114017136394978 
1982	 0.11407633125782 
1983	 0.114118039608002 
1984	 0.114143304526806 
1985	 0.11421187967062 
1986	 0.114274933934212 
1987	 0.114347197115421 
1988	 0.114453315734863 
1989	 0.114545062184334 
1990	 0.114560894668102 
1991	 0.114589683711529 
1992	 0.114708088338375 
1993	 0.114797927439213 
1994	 0.114857316017151 
1995	 0.11489924043417 
1996	 0.114971287548542 
1997	 0.115030959248543 
1998	 0.115099720656872 
1999	 0.115237787365913 
2000	 0.115296736359596 
2001	 0.115265652537346 
2002	 0.115189209580421 
2003	 0.11517021805048 
2004	 0.115258105099201 
2005	 0.115327075123787 
2006	 0.115398146212101 
2007	 0.115457274019718 
2008	 0.115444615483284 
2009	 0.115479297935963 
2010	 0.115560904145241 
2011	 0.115637235343456 
2012	 0.115723177790642 
2013	 0.115791715681553 
2014	 0.115862332284451 
2015	 0.115889929234982 
2016	 0.115880131721497 
2017	 0.115934826433659 
2018	 0.116090908646584 
2019	 0.116218790411949 
2020	 0.1162960678339 
2021	 0.116406239569187 
2022	 0.116451390087605 
2023	 0.116344109177589 
2024	 0.116369284689426 
2025	 0.11646668612957 
2026	 0.116501860320568 
2027	 0.116518586874008 
2028	 0.116623505949974 
2029	 0.116669088602066 
2030	 0.116690918803215 
2031	 0.116744741797447 
2032	 0.116814091801643 
2033	 0.11686509847641 
2034	 0.116897165775299 
2035	 0.116917170584202 
2036	 0.116916432976723 
2037	 0.116909705102444 
2038	 0.116867676377296 
2039	 0.116888299584389 
2040	 0.116964153945446 
2041	 0.116996422410011 
2042	 0.117076374590397 
2043	 0.117044620215893 
2044	 0.116949371993542 
2045	 0.116962894797325 
2046	 0.1170569434762 
2047	 0.117145411670208 
2048	 0.117208577692509 
2049	 0.117306306958199 
2050	 0.11735437810421 
2051	 0.117348417639732 
2052	 0.117379657924175 
2053	 0.117446444928646 
2054	 0.117466881871223 
2055	 0.117448009550571 
2056	 0.117432296276093 
2057	 0.117384359240532 
2058	 0.117377251386642 
2059	 0.117339693009853 
2060	 0.117346860468388 
2061	 0.117386154830456 
2062	 0.117357231676579 
2063	 0.117343612015247 
2064	 0.117388933897018 
2065	 0.117410622537136 
2066	 0.117442212998867 
2067	 0.117435939610004 
2068	 0.117415837943554 
2069	 0.117373988032341 
2070	 0.117234267294407 
2071	 0.117223896086216 
2072	 0.11727299541235 
2073	 0.117337934672832 
2074	 0.117472007870674 
2075	 0.11756481975317 
2076	 0.11747757345438 
2077	 0.117389306426048 
2078	 0.117351450026035 
2079	 0.11726014316082 
2080	 0.117168441414833 
2081	 0.117087975144386 
2082	 0.117062486708164 
2083	 0.117043510079384 
2084	 0.116998910903931 
2085	 0.117015555500984 
2086	 0.116985015571117 
2087	 0.116873398423195 
2088	 0.11678247153759 
2089	 0.116661630570889 
2090	 0.116688072681427 
2091	 0.116640090942383 
2092	 0.116498194634914 
2093	 0.116381213068962 
2094	 0.116234175860882 
2095	 0.116061240434647 
2096	 0.115941613912582 
2097	 0.115801580250263 
2098	 0.115659542381763 
2099	 0.115538507699966 
2100	 0.11543495208025 
2101	 0.115300506353378 
2102	 0.115142971277237 
2103	 0.11502505838871 
2104	 0.114887692034245 
2105	 0.114795483648777 
2106	 0.114756464958191 
2107	 0.114769950509071 
2108	 0.114655427634716 
2109	 0.114551082253456 
2110	 0.114418387413025 
2111	 0.114251561462879 
2112	 0.114228583872318 
2113	 0.114156007766724 
2114	 0.114077389240265 
2115	 0.113999210298061 
2116	 0.113950237631798 
2117	 0.113882601261139 
2118	 0.113858096301556 
2119	 0.113888435065746 
2120	 0.113897226750851 
2121	 0.113895162940025 
2122	 0.113907679915428 
2123	 0.113933958113194 
2124	 0.113956458866596 
2125	 0.113987624645233 
2126	 0.114043191075325 
2127	 0.114013113081455 
2128	 0.113995894789696 
2129	 0.114020645618439 
2130	 0.114067569375038 
2131	 0.11411426961422 
2132	 0.114135846495628 
2133	 0.114138588309288 
2134	 0.114138789474964 
2135	 0.114010788500309 
2136	 0.113713808357716 
2137	 0.113644577562809 
2138	 0.113623142242432 
2139	 0.113520108163357 
2140	 0.113562263548374 
2141	 0.11354573816061 
2142	 0.113382436335087 
2143	 0.113225296139717 
2144	 0.11309427767992 
2145	 0.113007478415966 
2146	 0.112779878079891 
2147	 0.112599514424801 
2148	 0.112590603530407 
2149	 0.112378150224686 
2150	 0.112047217786312 
2151	 0.111833848059177 
2152	 0.111559726297855 
2153	 0.111196748912334 
2154	 0.110904559493065 
2155	 0.110677890479565 
2156	 0.110351651906967 
2157	 0.109990864992142 
2158	 0.109621852636337 
2159	 0.109232999384403 
2160	 0.108813375234604 
2161	 0.108335964381695 
2162	 0.107879973948002 
2163	 0.107427679002285 
2164	 0.106938622891903 
2165	 0.106408655643463 
2166	 0.10588127374649 
2167	 0.105254255235195 
2168	 0.1045942902565 
2169	 0.103937707841396 
2170	 0.103233061730862 
2171	 0.10249937325716 
2172	 0.101734921336174 
2173	 0.10091283172369 
2174	 0.100071832537651 
2175	 9.91116240620613E-02 
2176	 9.80157777667046E-02 
2177	 9.69633683562279E-02 
2178	 9.58226695656776E-02 
2179	 9.47507470846176E-02 
2180	 9.38007906079292E-02 
2181	 9.27034616470337E-02 
2182	 9.14220809936523E-02 
2183	 9.03117135167122E-02 
2184	 8.92318561673164E-02 
2185	 8.81234481930733E-02 
2186	 8.70358347892761E-02 
2187	 8.61278250813484E-02 
2188	 8.50652977824211E-02 
2189	 8.39560180902481E-02 
2190	 8.31257551908493E-02 
2191	 8.23600962758064E-02 
2192	 8.14815983176231E-02 
2193	 8.08212831616402E-02 
2194	 8.03367346525192E-02 
2195	 7.97549411654472E-02 
2196	 7.93964564800262E-02 
2197	 7.93323963880539E-02 
2198	 7.91862159967422E-02 
2199	 7.90365263819695E-02 
2200	 0.07906673848629 
2201	 7.91855379939079E-02 
2202	 7.93694257736206E-02 
2203	 7.96967595815659E-02 
2204	 8.00559371709824E-02 
2205	 8.04623067378998E-02 
2206	 8.09727683663368E-02 
2207	 0.08158840239048 
2208	 8.22313129901886E-02 
2209	 8.29999372363091E-02 
2210	 8.37125107645988E-02 
2211	 8.44422355294228E-02 
2212	 8.51572602987289E-02 
2213	 8.58337506651878E-02 
2214	 0.086655780673027 
2215	 8.75653102993965E-02 
2216	 0.088363915681839 
2217	 8.90995338559151E-02 
2218	 8.98470282554626E-02 
2219	 9.06238034367561E-02 
2220	 9.13800075650215E-02 
2221	 9.21270325779915E-02 
2222	 9.28563177585602E-02 
2223	 9.34959948062897E-02 
2224	 9.40283015370369E-02 
2225	 9.45336893200874E-02 
2226	 9.49925556778908E-02 
2227	 9.54061299562454E-02 
2228	 9.56828147172928E-02 
2229	 9.60707515478134E-02 
2230	 9.65287461876869E-02 
2231	 9.69185084104538E-02 
2232	 9.73170772194862E-02 
2233	 9.76791828870773E-02 
2234	 0.098018154501915 
2235	 9.82848927378654E-02 
2236	 9.84800308942795E-02 
2237	 9.87170785665512E-02 
2238	 9.89463627338409E-02 
2239	 9.90853160619736E-02 
2240	 9.92302745580673E-02 
2241	 9.94394049048424E-02 
2242	 9.96527373790741E-02 
2243	 9.98598337173462E-02 
2244	 0.100223772227764 
2245	 0.100590988993645 
2246	 0.100764580070972 
2247	 0.100985608994961 
2248	 0.101244777441025 
2249	 0.10136740654707 
2250	 0.101492404937744 
2251	 0.10156787186861 
2252	 0.101663425564766 
2253	 0.101693041622639 
2254	 0.101758249104023 
2255	 0.101851485669613 
2256	 0.101956032216549 
2257	 0.102057814598083 
2258	 0.102151170372963 
2259	 0.102284356951714 
2260	 0.102389641106129 
2261	 0.102397061884403 
2262	 0.102467261254787 
2263	 0.102648124098778 
2264	 0.102752134203911 
2265	 0.102818809449673 
2266	 0.102889612317085 
2267	 0.102924987673759 
2268	 0.102954357862473 
2269	 0.102991014719009 
2270	 0.103064499795437 
2271	 0.103232584893703 
2272	 0.103152342140675 
2273	 0.103125065565109 
2274	 0.103036366403103 
2275	 0.102875635027885 
2276	 0.102851279079914 
2277	 0.1027747169137 
2278	 0.102800942957401 
2279	 0.102830953896046 
2280	 0.102713733911514 
2281	 0.1027537509799 
2282	 0.10270418971777 
2283	 0.102569214999676 
2284	 0.10252246260643 
2285	 0.102329097688198 
2286	 0.10209134221077 
2287	 0.102041736245155 
2288	 0.101937159895897 
2289	 0.101745627820492 
2290	 0.101686060428619 
2291	 0.101488001644611 
2292	 0.101072520017624 
2293	 0.100873656570911 
2294	 0.100780919194221 
2295	 0.100603461265564 
2296	 0.100488588213921 
2297	 0.100285515189171 
2298	 0.100035637617111 
2299	 9.96963903307915E-02 
2300	 9.92055013775826E-02 
2301	 9.89062935113907E-02 
2302	 9.86426249146461E-02 
2303	 9.83600690960884E-02 
2304	 9.81937870383263E-02 
2305	 9.79875549674034E-02 
2306	 9.76984277367592E-02 
2307	 9.74088087677956E-02 
2308	 9.72539633512497E-02 
2309	 9.69224944710732E-02 
2310	 9.63743776082993E-02 
2311	 9.59872677922249E-02 
2312	 9.56162139773369E-02 
2313	 9.52245742082596E-02 
2314	 9.49305817484856E-02 
2315	 9.45644751191139E-02 
2316	 9.41545963287354E-02 
2317	 9.36290547251701E-02 
2318	 9.31976288557053E-02 
2319	 9.28826481103897E-02 
2320	 9.26108360290527E-02 
2321	 9.24429297447205E-02 
2322	 9.20696258544922E-02 
2323	 9.15696769952774E-02 
2324	 0.091232068836689 
2325	 9.08365100622177E-02 
2326	 9.03447568416595E-02 
2327	 8.99765118956566E-02 
2328	 8.97416695952415E-02 
2329	 8.93369391560555E-02 
2330	 8.88423398137093E-02 
2331	 8.85507166385651E-02 
2332	 8.80290120840073E-02 
2333	 8.74181017279625E-02 
2334	 8.73456075787544E-02 
2335	 8.72206687927246E-02 
2336	 8.66694375872612E-02 
2337	 8.61988663673401E-02 
2338	 8.58016684651375E-02 
2339	 8.54941010475159E-02 
2340	 8.54345336556435E-02 
2341	 8.54182988405228E-02 
2342	 8.52893590927124E-02 
2343	 8.50413888692856E-02 
2344	 8.48157033324242E-02 
2345	 8.46210718154907E-02 
2346	 8.45901072025299E-02 
2347	 8.46732556819916E-02 
2348	 8.46652165055275E-02 
2349	 8.48585069179535E-02 
2350	 8.49605873227119E-02 
2351	 8.48890691995621E-02 
2352	 0.084977924823761 
2353	 8.53490903973579E-02 
2354	 8.52916315197945E-02 
2355	 8.49065780639648E-02 
2356	 0.084906592965126 
2357	 8.48571136593819E-02 
2358	 8.49802419543266E-02 
2359	 8.55220258235931E-02 
2360	 0.085651807487011 
2361	 8.55853259563446E-02 
2362	 8.56297314167023E-02 
2363	 8.55125114321709E-02 
2364	 8.57274606823921E-02 
2365	 8.62368047237396E-02 
2366	 8.63183215260506E-02 
2367	 8.63768011331558E-02 
2368	 8.64237993955612E-02 
2369	 8.61391425132751E-02 
2370	 8.61488357186317E-02 
2371	 8.64383801817894E-02 
2372	 8.64499062299728E-02 
2373	 8.63686576485634E-02 
2374	 8.63459855318069E-02 
2375	 8.62104296684265E-02 
2376	 8.61637145280838E-02 
2377	 8.62308219075203E-02 
2378	 8.61790776252747E-02 
2379	 8.60330238938332E-02 
2380	 8.60557481646538E-02 
2381	 8.61728116869926E-02 
2382	 8.61677750945091E-02 
2383	 8.61969068646431E-02 
2384	 0.086142435669899 
2385	 8.59614163637161E-02 
2386	 8.58733505010605E-02 
2387	 8.57320949435234E-02 
2388	 8.57723876833916E-02 
2389	 8.59882608056068E-02 
2390	 8.59702825546265E-02 
2391	 8.59823152422905E-02 
2392	 8.59817788004875E-02 
2393	 8.57630223035812E-02 
2394	 8.56916978955269E-02 
2395	 8.58360677957535E-02 
2396	 8.58131721615791E-02 
2397	 8.57240781188011E-02 
2398	 8.55520069599152E-02 
2399	 8.50989446043968E-02 
2400	 8.49873647093773E-02 
2401	 8.52082148194313E-02 
2402	 8.50723385810852E-02 
2403	 8.49226713180542E-02 
2404	 8.48118811845779E-02 
2405	 8.43164920806885E-02 
2406	 8.39863792061806E-02 
2407	 8.39771777391434E-02 
2408	 0.083858422935009 
2409	 8.35875123739243E-02 
2410	 8.34940299391747E-02 
2411	 8.36245492100716E-02 
2412	 8.34524035453796E-02 
2413	 8.32412168383598E-02 
2414	 8.28929841518402E-02 
2415	 0.082180455327034 
2416	 0.081746444106102 
2417	 8.13463106751442E-02 
2418	 8.10500830411911E-02 
2419	 8.10317546129227E-02 
2420	 8.07707235217094E-02 
2421	 8.03379565477371E-02 
2422	 8.00892412662506E-02 
2423	 7.97548815608025E-02 
2424	 7.96574726700783E-02 
2425	 0.079984687268734 
2426	 7.98811614513397E-02 
2427	 7.97265917062759E-02 
2428	 0.07942233979702 
2429	 7.86135569214821E-02 
2430	 7.83493891358376E-02 
2431	 7.82900676131248E-02 
2432	 7.81830102205276E-02 
2433	 7.85011202096939E-02 
2434	 7.83538818359375E-02 
2435	 0.077783577144146 
2436	 7.76608362793922E-02 
2437	 7.74479657411575E-02 
2438	 7.75363519787788E-02 
2439	 7.82912597060204E-02 
2440	 7.82240182161331E-02 
2441	 0.077796034514904 
2442	 7.76587501168251E-02 
2443	 7.70286321640015E-02 
2444	 7.71389156579971E-02 
2445	 7.82010331749916E-02 
2446	 7.80842155218124E-02 
2447	 7.73840397596359E-02 
2448	 7.75097906589508E-02 
2449	 7.75266215205193E-02 
2450	 7.73588865995407E-02 
2451	 0.077823668718338 
2452	 7.78537839651108E-02 
2453	 7.68530666828156E-02 
2454	 7.78669789433479E-02 
2455	 7.88936987519264E-02 
2456	 7.88600444793701E-02 
2457	 0.078967772424221 
2458	 0.078237883746624 
2459	 7.76571705937386E-02 
2460	 7.82962813973427E-02 
2461	 7.85338133573532E-02 
2462	 7.87678956985474E-02 
2463	 7.92225673794746E-02 
2464	 7.91813805699348E-02 
2465	 7.93589055538177E-02 
2466	 7.97591060400009E-02 
2467	 7.99685269594193E-02 
2468	 8.02610293030739E-02 
2469	 8.04219096899033E-02 
2470	 8.02135169506073E-02 
2471	 8.02077576518059E-02 
2472	 8.03435742855072E-02 
2473	 8.03353190422058E-02 
2474	 8.04099217057228E-02 
2475	 8.03612694144249E-02 
2476	 7.99212083220482E-02 
2477	 0.079838827252388 
2478	 7.99018442630768E-02 
2479	 8.00157561898232E-02 
2480	 8.04591253399849E-02 
2481	 8.07240009307861E-02 
2482	 8.09658840298653E-02 
2483	 8.11096429824829E-02 
2484	 8.12219455838203E-02 
2485	 8.11887159943581E-02 
2486	 8.08110013604164E-02 
2487	 8.08102637529373E-02 
2488	 8.11839774250984E-02 
2489	 8.09515714645386E-02 
2490	 8.03017988801003E-02 
2491	 8.03156793117523E-02 
2492	 8.03171396255493E-02 
2493	 8.01939591765404E-02 
2494	 8.07037651538849E-02 
2495	 0.080798901617527 
2496	 7.97732025384903E-02 
2497	 8.03918614983559E-02 
2498	 8.25095772743225E-02 
2499	 8.29846635460854E-02 
2500	 8.36106315255165E-02 
