
Text conversion of header file \A_MEDIDAS\PROJETOS\BRASIL\BLOCO GAVIAO\JACOBINA\CANIF27\sco\CANIF27_004.62_00001.asd.ref
 -------------------------------------------------------------
Intemperizada                                                                                                                                               
The instrument number was  16586/1
New ASD spectrum file: Program version = 6.00 file version = 1.00
Spectrum saved: 10/16/2018 at 09:56:20
VNIR integration time : 34
VNIR channel 1 wavelength = 350 wavelength step = 1
There were 50 samples per data value
xmin = 350 xmax= 2500
ymin= 0 ymax= 1.25
The instrument digitizes spectral values to 16 bits
SWIR1 gain was 214 offset was 2097
SWIR2 gain was 513 offset was 2267
Join between VNIR and SWIR1 was 1000 nm
Join between SWIR1 and SWIR2 was 1830 nm
Absolute Reflectance is Enabled
The Absolute Reflectance File is abs165861.ref
VNIR dark signal subtracted
50 dark measurements taken Tue Oct 16 09:52:54 2018
DCC value was 0
Data is compared to a white reference:
60 white reference measurements taken Tue Oct 16 09:53:02 2018
There was no foreoptic attached
Spectrum file is reflectance data
GPS-Latitude is S0
GPS-Longitude is E0
GPS-Altitude is 0
GPS-UTC is Wed Dec 31 17:00:00 1969

Smart Detector
Serial#  0
Signal (A)  0.000E00
Dark (A)  0.000E00
Ref (A)  0.000E00
Status  0 - Uninitialized
Gain  E-4
Averaging  0
Temp (C)  0.0
Humid (%)  0.0

Reflectance Absolute
Wavelength	CANIF27_4.62_00001.asd.ref
350	 0.106358170509338 
351	 0.097013458609581 
352	 0.100940674543381 
353	 0.105469070374966 
354	 0.101445414125919 
355	 0.100836485624313 
356	 0.104108914732933 
357	 0.107528209686279 
358	 0.106642976403236 
359	 9.88930314779282E-02 
360	 9.87867340445518E-02 
361	 0.106693595647812 
362	 0.112799696624279 
363	 0.107025898993015 
364	 0.105030559003353 
365	 0.111150495707989 
366	 0.110565952956676 
367	 0.105010814964771 
368	 0.10193657130003 
369	 0.105885602533817 
370	 0.109731011092663 
371	 0.109920561313629 
372	 0.108119070529938 
373	 0.107762776315212 
374	 0.106276102364063 
375	 0.107354328036308 
376	 0.110177233815193 
377	 0.109290696680546 
378	 0.110007576644421 
379	 0.111123263835907 
380	 0.11120019108057 
381	 0.110865838825703 
382	 0.11186982691288 
383	 0.113278239965439 
384	 0.113719254732132 
385	 0.115321636199951 
386	 0.117414444684982 
387	 0.119363561272621 
388	 0.120684534311295 
389	 0.120209954679012 
390	 0.120186507701874 
391	 0.121710009872913 
392	 0.122450172901154 
393	 0.12395878136158 
394	 0.125332057476044 
395	 0.125412657856941 
396	 0.125220715999603 
397	 0.127605244517326 
398	 0.131118968129158 
399	 0.13144388794899 
400	 0.131908640265465 
401	 0.13247062265873 
402	 0.132708325982094 
403	 0.132261231541634 
404	 0.133380621671677 
405	 0.135408192873001 
406	 0.136897891759872 
407	 0.137189224362373 
408	 0.13747775554657 
409	 0.137994602322578 
410	 0.138365864753723 
411	 0.139770239591599 
412	 0.140982270240784 
413	 0.14154177904129 
414	 0.142695292830467 
415	 0.142922505736351 
416	 0.142982289195061 
417	 0.143871650099754 
418	 0.145217761397362 
419	 0.145903006196022 
420	 0.146135434508324 
421	 0.146895825862885 
422	 0.147901996970177 
423	 0.148849949240685 
424	 0.149425446987152 
425	 0.149246945977211 
426	 0.150319680571556 
427	 0.151307135820389 
428	 0.150990784168243 
429	 0.151812538504601 
430	 0.152556374669075 
431	 0.152949169278145 
432	 0.153321266174316 
433	 0.153285697102547 
434	 0.153818115592003 
435	 0.15509158372879 
436	 0.155924513936043 
437	 0.156383439898491 
438	 0.157171979546547 
439	 0.158763334155083 
440	 0.160189747810364 
441	 0.16143923997879 
442	 0.162395149469376 
443	 0.162957638502121 
444	 0.163970977067947 
445	 0.165197491645813 
446	 0.166293486952782 
447	 0.166957646608353 
448	 0.167797312140465 
449	 0.168709099292755 
450	 0.169452801346779 
451	 0.170135274529457 
452	 0.170903220772743 
453	 0.171655625104904 
454	 0.172158539295197 
455	 0.172985628247261 
456	 0.173663973808289 
457	 0.174043223261833 
458	 0.174866557121277 
459	 0.175688788294792 
460	 0.176297098398209 
461	 0.176687344908714 
462	 0.177486523985863 
463	 0.178190499544144 
464	 0.178639262914658 
465	 0.179036423563957 
466	 0.17972868680954 
467	 0.180427327752113 
468	 0.180916488170624 
469	 0.181398808956146 
470	 0.182029187679291 
471	 0.182600453495979 
472	 0.182882651686668 
473	 0.183449238538742 
474	 0.184072330594063 
475	 0.184704393148422 
476	 0.185537859797478 
477	 0.186293140053749 
478	 0.186901494860649 
479	 0.187415421009064 
480	 0.188051521778107 
481	 0.188864573836327 
482	 0.189670965075493 
483	 0.190237641334534 
484	 0.190967127680779 
485	 0.191689595580101 
486	 0.192351579666138 
487	 0.193126529455185 
488	 0.193836972117424 
489	 0.194486930966377 
490	 0.195106536149979 
491	 0.195641741156578 
492	 0.196120515465736 
493	 0.196575686335564 
494	 0.197048589587212 
495	 0.197621583938599 
496	 0.198301210999489 
497	 0.199040710926056 
498	 0.199722036719322 
499	 0.200571820139885 
500	 0.20142437517643 
501	 0.202143549919128 
502	 0.203294634819031 
503	 0.20421576499939 
504	 0.204856291413307 
505	 0.205678164958954 
506	 0.206600248813629 
507	 0.207470163702965 
508	 0.208225518465042 
509	 0.209026023745537 
510	 0.209800079464912 
511	 0.210506051778793 
512	 0.21115380525589 
513	 0.211992889642715 
514	 0.212746471166611 
515	 0.213359817862511 
516	 0.214032620191574 
517	 0.214756011962891 
518	 0.215393617749214 
519	 0.215915605425835 
520	 0.216655254364014 
521	 0.217292323708534 
522	 0.217830866575241 
523	 0.218411237001419 
524	 0.218946844339371 
525	 0.219407558441162 
526	 0.219833865761757 
527	 0.220345541834831 
528	 0.220815971493721 
529	 0.221292912960052 
530	 0.221809029579163 
531	 0.222190365195274 
532	 0.222619757056236 
533	 0.223092302680016 
534	 0.223493233323097 
535	 0.223916947841644 
536	 0.224416583776474 
537	 0.224954143166542 
538	 0.225345030426979 
539	 0.225775346159935 
540	 0.22621987760067 
541	 0.226621747016907 
542	 0.227090179920197 
543	 0.227575451135635 
544	 0.228066027164459 
545	 0.228580430150032 
546	 0.228979259729385 
547	 0.229376420378685 
548	 0.229813948273659 
549	 0.230058938264847 
550	 0.230407655239105 
551	 0.230835795402527 
552	 0.2312091588974 
553	 0.231558442115784 
554	 0.231905534863472 
555	 0.232201859354973 
556	 0.232331857085228 
557	 0.232595086097717 
558	 0.232863277196884 
559	 0.233046486973763 
560	 0.233443051576614 
561	 0.233852759003639 
562	 0.234166175127029 
563	 0.234359726309776 
564	 0.234676823019981 
565	 0.234968766570091 
566	 0.235183238983154 
567	 0.235461607575417 
568	 0.235572203993797 
569	 0.235546842217445 
570	 0.235488593578339 
571	 0.235457703471184 
572	 0.235439196228981 
573	 0.235490545630455 
574	 0.235706567764282 
575	 0.236018151044846 
576	 0.236311763525009 
577	 0.236536979675293 
578	 0.236776262521744 
579	 0.236925780773163 
580	 0.236999958753586 
581	 0.237053140997887 
582	 0.237113118171692 
583	 0.237200751900673 
584	 0.237255677580833 
585	 0.237154215574265 
586	 0.236900120973587 
587	 0.236670553684235 
588	 0.23663654923439 
589	 0.236917659640312 
590	 0.23719248175621 
591	 0.237311273813248 
592	 0.237230584025383 
593	 0.237002715468407 
594	 0.236887544393539 
595	 0.236928194761276 
596	 0.236921846866608 
597	 0.236794039607048 
598	 0.23656377196312 
599	 0.236281543970108 
600	 0.235997661948204 
601	 0.235709637403488 
602	 0.235449731349945 
603	 0.235248938202858 
604	 0.235021501779556 
605	 0.234861269593239 
606	 0.234796687960625 
607	 0.234751030802727 
608	 0.234639883041382 
609	 0.234457045793533 
610	 0.234236270189285 
611	 0.234053492546082 
612	 0.233829364180565 
613	 0.233575403690338 
614	 0.233352914452553 
615	 0.2331223487854 
616	 0.232963472604752 
617	 0.232841834425926 
618	 0.232526838779449 
619	 0.232279688119888 
620	 0.232102617621422 
621	 0.23192948102951 
622	 0.231734439730644 
623	 0.231542930006981 
624	 0.231335565447807 
625	 0.231074899435043 
626	 0.230873122811317 
627	 0.230682089924812 
628	 0.230469167232513 
629	 0.230271115899086 
630	 0.230047315359116 
631	 0.22981821000576 
632	 0.229610726237297 
633	 0.229401096701622 
634	 0.229163125157356 
635	 0.228930056095123 
636	 0.228767365217209 
637	 0.228547587990761 
638	 0.22830656170845 
639	 0.228077709674835 
640	 0.227838486433029 
641	 0.227595314383507 
642	 0.227376684546471 
643	 0.227196782827377 
644	 0.226975426077843 
645	 0.226731225848198 
646	 0.226502999663353 
647	 0.22633284330368 
648	 0.226102381944656 
649	 0.225879341363907 
650	 0.225698933005333 
651	 0.225477069616318 
652	 0.225227534770966 
653	 0.224979653954506 
654	 0.224767044186592 
655	 0.224617063999176 
656	 0.224414572119713 
657	 0.224173575639725 
658	 0.224003523588181 
659	 0.223768889904022 
660	 0.223530858755112 
661	 0.223330214619637 
662	 0.223114028573036 
663	 0.222899615764618 
664	 0.222700893878937 
665	 0.222527176141739 
666	 0.222374811768532 
667	 0.222185671329498 
668	 0.221950754523277 
669	 0.221710577607155 
670	 0.221602618694305 
671	 0.221444845199585 
672	 0.221182614564896 
673	 0.221053659915924 
674	 0.220947906374931 
675	 0.220776200294495 
676	 0.220517069101334 
677	 0.220388427376747 
678	 0.220229521393776 
679	 0.220020636916161 
680	 0.219836413860321 
681	 0.219641029834747 
682	 0.21948204934597 
683	 0.219351977109909 
684	 0.219151541590691 
685	 0.218992203474045 
686	 0.218865290284157 
687	 0.218735575675964 
688	 0.218589723110199 
689	 0.218454778194427 
690	 0.218328818678856 
691	 0.218197792768478 
692	 0.218082219362259 
693	 0.218006044626236 
694	 0.217939257621765 
695	 0.217794418334961 
696	 0.217688992619514 
697	 0.217614769935608 
698	 0.217535465955734 
699	 0.217417925596237 
700	 0.217274263501167 
701	 0.217179208993912 
702	 0.217192843556404 
703	 0.217158272862434 
704	 0.217120423913002 
705	 0.217074617743492 
706	 0.216973692178726 
707	 0.216974541544914 
708	 0.216944843530655 
709	 0.216838374733925 
710	 0.216856583952904 
711	 0.216863349080086 
712	 0.21685166656971 
713	 0.216844707727432 
714	 0.216824352741241 
715	 0.216830030083656 
716	 0.216834455728531 
717	 0.216794416308403 
718	 0.216903194785118 
719	 0.216987326741219 
720	 0.21698534488678 
721	 0.217022806406021 
722	 0.217061132192612 
723	 0.217159420251846 
724	 0.217311277985573 
725	 0.217297002673149 
726	 0.217273205518723 
727	 0.217352509498596 
728	 0.217559590935707 
729	 0.217594385147095 
730	 0.217619985342026 
731	 0.217697456479073 
732	 0.217786133289337 
733	 0.217864736914635 
734	 0.217998400330544 
735	 0.218170240521431 
736	 0.218226358294487 
737	 0.218394488096237 
738	 0.218579396605492 
739	 0.21866649389267 
740	 0.218719035387039 
741	 0.218846455216408 
742	 0.219021543860435 
743	 0.219167336821556 
744	 0.21932415664196 
745	 0.219475701451302 
746	 0.219627022743225 
747	 0.219798132777214 
748	 0.219938710331917 
749	 0.220064982771873 
750	 0.220218062400818 
751	 0.220459431409836 
752	 0.22064708173275 
753	 0.220830991864204 
754	 0.221049517393112 
755	 0.221154764294624 
756	 0.221311837434769 
757	 0.221544593572617 
758	 0.22178752720356 
759	 0.221861526370049 
760	 0.222031012177467 
761	 0.222318679094315 
762	 0.222553238272667 
763	 0.222770288586617 
764	 0.222920551896095 
765	 0.223034158349037 
766	 0.223245561122894 
767	 0.223449662327766 
768	 0.223656192421913 
769	 0.22386223077774 
770	 0.22397369146347 
771	 0.224151432514191 
772	 0.224370047450066 
773	 0.224551677703857 
774	 0.22467865049839 
775	 0.224851503968239 
776	 0.225057885050774 
777	 0.2252237200737 
778	 0.225340768694878 
779	 0.225472554564476 
780	 0.225633472204208 
781	 0.22578464448452 
782	 0.225903511047363 
783	 0.226023495197296 
784	 0.226156756281853 
785	 0.22627092897892 
786	 0.226346418261528 
787	 0.226398646831512 
788	 0.226452678442001 
789	 0.226535335183144 
790	 0.226586863398552 
791	 0.226626798510551 
792	 0.226694002747536 
793	 0.226790592074394 
794	 0.226874694228172 
795	 0.226933181285858 
796	 0.226960748434067 
797	 0.226884141564369 
798	 0.226834252476692 
799	 0.226830005645752 
800	 0.226797372102737 
801	 0.22682236135006 
802	 0.226811602711678 
803	 0.226760745048523 
804	 0.22678504884243 
805	 0.226651132106781 
806	 0.226549580693245 
807	 0.226575911045074 
808	 0.226519092917442 
809	 0.226371616125107 
810	 0.226199582219124 
811	 0.226069644093513 
812	 0.225982889533043 
813	 0.225910067558289 
814	 0.225816711783409 
815	 0.225690007209778 
816	 0.225607261061668 
817	 0.225432112812996 
818	 0.225210160017014 
819	 0.22505484521389 
820	 0.224900096654892 
821	 0.224766284227371 
822	 0.224658086895943 
823	 0.224556386470795 
824	 0.224383637309074 
825	 0.224183425307274 
826	 0.223979845643044 
827	 0.223765343427658 
828	 0.223523214459419 
829	 0.223340332508087 
830	 0.223221823573112 
831	 0.223059266805649 
832	 0.222845643758774 
833	 0.22266960144043 
834	 0.222549825906754 
835	 0.222366809844971 
836	 0.222142353653908 
837	 0.221890270709991 
838	 0.221648067235947 
839	 0.22149720788002 
840	 0.221303343772888 
841	 0.221094608306885 
842	 0.220936566591263 
843	 0.220882475376129 
844	 0.220635935664177 
845	 0.220329269766808 
846	 0.220156714320183 
847	 0.219992250204086 
848	 0.219785273075104 
849	 0.219602778553963 
850	 0.219500884413719 
851	 0.219290122389793 
852	 0.219025954604149 
853	 0.218792617321014 
854	 0.218670308589935 
855	 0.218678951263428 
856	 0.218624994158745 
857	 0.218484193086624 
858	 0.218320026993752 
859	 0.218028008937836 
860	 0.217748031020164 
861	 0.217577174305916 
862	 0.217534556984901 
863	 0.217478379607201 
864	 0.21731148660183 
865	 0.217109590768814 
866	 0.217032819986343 
867	 0.21690908074379 
868	 0.216807141900063 
869	 0.216718852519989 
870	 0.216576024889946 
871	 0.216482609510422 
872	 0.216449931263924 
873	 0.216396003961563 
874	 0.216208666563034 
875	 0.216128677129745 
876	 0.216056272387505 
877	 0.215960755944252 
878	 0.215911626815796 
879	 0.215932637453079 
880	 0.215909138321877 
881	 0.215838015079498 
882	 0.215823531150818 
883	 0.215752229094505 
884	 0.215688094496727 
885	 0.21566666662693 
886	 0.215668857097626 
887	 0.215668633580208 
888	 0.215651243925095 
889	 0.215626463294029 
890	 0.215619951486588 
891	 0.21559451520443 
892	 0.2155921459198 
893	 0.215645506978035 
894	 0.215753972530365 
895	 0.215826407074928 
896	 0.215832754969597 
897	 0.215818122029305 
898	 0.215866550803185 
899	 0.215880155563354 
900	 0.215924426913261 
901	 0.216009080410004 
902	 0.216082707047462 
903	 0.216124817728996 
904	 0.216208606958389 
905	 0.21635477244854 
906	 0.216509163379669 
907	 0.216479912400246 
908	 0.216513767838478 
909	 0.216685816645622 
910	 0.216903284192085 
911	 0.21705861389637 
912	 0.217186108231544 
913	 0.217233821749687 
914	 0.217178985476494 
915	 0.217398762702942 
916	 0.217660829424858 
917	 0.217840746045113 
918	 0.217932775616646 
919	 0.218070477247238 
920	 0.218179255723953 
921	 0.218306839466095 
922	 0.218503281474113 
923	 0.218629464507103 
924	 0.218802228569984 
925	 0.219005689024925 
926	 0.219193562865257 
927	 0.219383090734482 
928	 0.219533875584602 
929	 0.219690039753914 
930	 0.219887092709541 
931	 0.220085754990578 
932	 0.2202138453722 
933	 0.22033166885376 
934	 0.220514014363289 
935	 0.220789909362793 
936	 0.221128180623055 
937	 0.221351370215416 
938	 0.221431240439415 
939	 0.22155225276947 
940	 0.221796840429306 
941	 0.221989914774895 
942	 0.222137093544006 
943	 0.222401455044746 
944	 0.222563728690147 
945	 0.222738608717918 
946	 0.222970619797707 
947	 0.223205387592316 
948	 0.223271027207375 
949	 0.223386034369469 
950	 0.223650455474854 
951	 0.223995819687843 
952	 0.224052250385284 
953	 0.224289566278458 
954	 0.224567785859108 
955	 0.224686816334724 
956	 0.224815979599953 
957	 0.224984511733055 
958	 0.22519326210022 
959	 0.225417926907539 
960	 0.225624114274979 
961	 0.225883960723877 
962	 0.226161107420921 
963	 0.226363733410835 
964	 0.226417079567909 
965	 0.226543515920639 
966	 0.226785242557526 
967	 0.227053180336952 
968	 0.227234825491905 
969	 0.227442547678947 
970	 0.227616429328918 
971	 0.227768391370773 
972	 0.227932021021843 
973	 0.228109911084175 
974	 0.228303760290146 
975	 0.228413611650467 
976	 0.228453457355499 
977	 0.228627398610115 
978	 0.22888956964016 
979	 0.229194208979607 
980	 0.229424431920052 
981	 0.229473933577538 
982	 0.22961100935936 
983	 0.229692786931992 
984	 0.22974494099617 
985	 0.229844480752945 
986	 0.229863971471786 
987	 0.229851365089417 
988	 0.229982554912567 
989	 0.230294749140739 
990	 0.230519518256187 
991	 0.230580225586891 
992	 0.230715036392212 
993	 0.230912059545517 
994	 0.230916634202003 
995	 0.230975687503815 
996	 0.231008291244507 
997	 0.231065630912781 
998	 0.231220722198486 
999	 0.231351122260094 
1000	 0.231405988335609 
1001	 0.23016232252121 
1002	 0.23030412197113 
1003	 0.230525985360146 
1004	 0.230617374181747 
1005	 0.230578154325485 
1006	 0.230514362454414 
1007	 0.230450436472893 
1008	 0.230337575078011 
1009	 0.230345517396927 
1010	 0.230523526668549 
1011	 0.230585843324661 
1012	 0.230611875653267 
1013	 0.230669572949409 
1014	 0.230739936232567 
1015	 0.230778321623802 
1016	 0.230776771903038 
1017	 0.230860501527786 
1018	 0.230969712138176 
1019	 0.231000155210495 
1020	 0.231097266077995 
1021	 0.231204897165298 
1022	 0.231183975934982 
1023	 0.23115411400795 
1024	 0.231134638190269 
1025	 0.231076657772064 
1026	 0.2310621291399 
1027	 0.231079012155533 
1028	 0.231070160865784 
1029	 0.231075823307037 
1030	 0.231067135930061 
1031	 0.230998441576958 
1032	 0.230978965759277 
1033	 0.231004565954208 
1034	 0.23100620508194 
1035	 0.231069356203079 
1036	 0.231179282069206 
1037	 0.231178000569344 
1038	 0.231114268302917 
1039	 0.231144189834595 
1040	 0.231224074959755 
1041	 0.231232061982155 
1042	 0.231260612607002 
1043	 0.231270059943199 
1044	 0.231227740645409 
1045	 0.231125310063362 
1046	 0.231105402112007 
1047	 0.231204137206078 
1048	 0.23123137652874 
1049	 0.231168553233147 
1050	 0.231136709451675 
1051	 0.231078043580055 
1052	 0.231077626347542 
1053	 0.231126308441162 
1054	 0.231113448739052 
1055	 0.231082558631897 
1056	 0.231057971715927 
1057	 0.231021881103516 
1058	 0.230928689241409 
1059	 0.230875089764595 
1060	 0.230845525860786 
1061	 0.230791598558426 
1062	 0.230816707015038 
1063	 0.230862140655518 
1064	 0.230903014540672 
1065	 0.230883106589317 
1066	 0.230857461690903 
1067	 0.23083208501339 
1068	 0.23078316450119 
1069	 0.230796337127686 
1070	 0.23087252676487 
1071	 0.230901390314102 
1072	 0.230926603078842 
1073	 0.231007263064384 
1074	 0.231018170714378 
1075	 0.231074661016464 
1076	 0.23114575445652 
1077	 0.231157064437866 
1078	 0.231193780899048 
1079	 0.231190785765648 
1080	 0.231199011206627 
1081	 0.231245562434196 
1082	 0.231234222650528 
1083	 0.231292545795441 
1084	 0.231390386819839 
1085	 0.23139813542366 
1086	 0.231425359845161 
1087	 0.231461212038994 
1088	 0.231539323925972 
1089	 0.231546193361282 
1090	 0.231559112668037 
1091	 0.231648907065392 
1092	 0.231682538986206 
1093	 0.231739401817322 
1094	 0.231854557991028 
1095	 0.231946304440498 
1096	 0.232060134410858 
1097	 0.232156366109848 
1098	 0.232262089848518 
1099	 0.232424095273018 
1100	 0.232577040791512 
1101	 0.232704654335976 
1102	 0.232843354344368 
1103	 0.232926145195961 
1104	 0.232923328876495 
1105	 0.232998415827751 
1106	 0.233064234256744 
1107	 0.233145862817764 
1108	 0.233359411358833 
1109	 0.233488693833351 
1110	 0.233581468462944 
1111	 0.233711034059525 
1112	 0.23382180929184 
1113	 0.233932808041573 
1114	 0.234035983681679 
1115	 0.234185874462128 
1116	 0.23429936170578 
1117	 0.234413132071495 
1118	 0.234514117240906 
1119	 0.234663084149361 
1120	 0.234780967235565 
1121	 0.234946757555008 
1122	 0.235091850161552 
1123	 0.235192269086838 
1124	 0.235306724905968 
1125	 0.235383346676826 
1126	 0.235542580485344 
1127	 0.235727116465569 
1128	 0.235860571265221 
1129	 0.236015558242798 
1130	 0.236121013760567 
1131	 0.236219346523285 
1132	 0.236379444599152 
1133	 0.236535266041756 
1134	 0.236690953373909 
1135	 0.236850276589394 
1136	 0.237044721841812 
1137	 0.237213239073753 
1138	 0.237329050898552 
1139	 0.237504824995995 
1140	 0.237673997879028 
1141	 0.237832427024841 
1142	 0.238074243068695 
1143	 0.238257393240929 
1144	 0.238397911190987 
1145	 0.238516718149185 
1146	 0.238640531897545 
1147	 0.23883356153965 
1148	 0.239011123776436 
1149	 0.239196076989174 
1150	 0.239429622888565 
1151	 0.239606946706772 
1152	 0.239733576774597 
1153	 0.23990398645401 
1154	 0.240130409598351 
1155	 0.240374520421028 
1156	 0.240645378828049 
1157	 0.240902185440063 
1158	 0.241141691803932 
1159	 0.241349190473557 
1160	 0.241551592946053 
1161	 0.241815447807312 
1162	 0.242050319910049 
1163	 0.242276310920715 
1164	 0.242576465010643 
1165	 0.24287211894989 
1166	 0.24313797056675 
1167	 0.24341194331646 
1168	 0.243671000003815 
1169	 0.243905007839203 
1170	 0.24410942196846 
1171	 0.244345188140869 
1172	 0.244606405496597 
1173	 0.244858652353287 
1174	 0.245119899511337 
1175	 0.245394885540009 
1176	 0.245645046234131 
1177	 0.245898202061653 
1178	 0.246187835931778 
1179	 0.246468424797058 
1180	 0.246767953038216 
1181	 0.247089967131615 
1182	 0.247392609715462 
1183	 0.247687309980392 
1184	 0.247989043593407 
1185	 0.248265042901039 
1186	 0.248484581708908 
1187	 0.248771443963051 
1188	 0.249066606163979 
1189	 0.249425664544106 
1190	 0.249778181314468 
1191	 0.25011020898819 
1192	 0.250415980815887 
1193	 0.250651866197586 
1194	 0.250893145799637 
1195	 0.251195341348648 
1196	 0.251510590314865 
1197	 0.251836121082306 
1198	 0.25216355919838 
1199	 0.252455472946167 
1200	 0.252794206142426 
1201	 0.253155916929245 
1202	 0.253485500812531 
1203	 0.253827333450317 
1204	 0.254173755645752 
1205	 0.254485130310059 
1206	 0.254814088344574 
1207	 0.255169123411179 
1208	 0.255516856908798 
1209	 0.255867451429367 
1210	 0.256215244531631 
1211	 0.25655671954155 
1212	 0.256892144680023 
1213	 0.257213681936264 
1214	 0.257549226284027 
1215	 0.257898390293121 
1216	 0.258235931396484 
1217	 0.258565932512283 
1218	 0.258891582489014 
1219	 0.25921568274498 
1220	 0.259516358375549 
1221	 0.259863495826721 
1222	 0.26024204492569 
1223	 0.260588318109512 
1224	 0.260945498943329 
1225	 0.261315792798996 
1226	 0.261671334505081 
1227	 0.262037098407745 
1228	 0.262442380189896 
1229	 0.262806326150894 
1230	 0.263161867856979 
1231	 0.263506770133972 
1232	 0.263841539621353 
1233	 0.264203608036041 
1234	 0.264574348926544 
1235	 0.26493638753891 
1236	 0.265317976474762 
1237	 0.26570525765419 
1238	 0.266063928604126 
1239	 0.266403436660767 
1240	 0.266760408878326 
1241	 0.267097443342209 
1242	 0.26745069026947 
1243	 0.267826437950134 
1244	 0.268204569816589 
1245	 0.268596202135086 
1246	 0.268961697816849 
1247	 0.269320696592331 
1248	 0.269675433635712 
1249	 0.270044177770615 
1250	 0.270415842533112 
1251	 0.270804077386856 
1252	 0.271189719438553 
1253	 0.271494477987289 
1254	 0.271791696548462 
1255	 0.272154808044434 
1256	 0.272496908903122 
1257	 0.272875934839249 
1258	 0.273298233747482 
1259	 0.273701995611191 
1260	 0.274119257926941 
1261	 0.274509727954865 
1262	 0.274881333112717 
1263	 0.275255560874939 
1264	 0.275595724582672 
1265	 0.275954186916351 
1266	 0.276347488164902 
1267	 0.276728987693787 
1268	 0.277095794677734 
1269	 0.277479827404022 
1270	 0.277889549732208 
1271	 0.278252363204956 
1272	 0.278602927923203 
1273	 0.278944194316864 
1274	 0.279303908348084 
1275	 0.279681235551834 
1276	 0.280079573392868 
1277	 0.280477613210678 
1278	 0.280841171741486 
1279	 0.281200855970383 
1280	 0.281562954187393 
1281	 0.281927496194839 
1282	 0.282295078039169 
1283	 0.282664984464645 
1284	 0.283017724752426 
1285	 0.283359348773956 
1286	 0.283710807561874 
1287	 0.284050494432449 
1288	 0.284412384033203 
1289	 0.28482249379158 
1290	 0.285182982683182 
1291	 0.28554356098175 
1292	 0.285854041576386 
1293	 0.286133229732513 
1294	 0.286430150270462 
1295	 0.286768198013306 
1296	 0.287136048078537 
1297	 0.287520855665207 
1298	 0.287868499755859 
1299	 0.28816631436348 
1300	 0.288461416959763 
1301	 0.288777261972427 
1302	 0.289109170436859 
1303	 0.289457023143768 
1304	 0.289859533309937 
1305	 0.290210336446762 
1306	 0.290524959564209 
1307	 0.290876686573029 
1308	 0.291207313537598 
1309	 0.291593164205551 
1310	 0.292044848203659 
1311	 0.29247185587883 
1312	 0.292910218238831 
1313	 0.2933389544487 
1314	 0.293771862983704 
1315	 0.294190496206284 
1316	 0.294597774744034 
1317	 0.295006960630417 
1318	 0.295418500900269 
1319	 0.29578560590744 
1320	 0.296179324388504 
1321	 0.296610444784164 
1322	 0.297015815973282 
1323	 0.297402024269104 
1324	 0.297804415225983 
1325	 0.298176914453506 
1326	 0.298552870750427 
1327	 0.298908889293671 
1328	 0.299319475889206 
1329	 0.299758285284042 
1330	 0.300167471170425 
1331	 0.300605207681656 
1332	 0.301005363464355 
1333	 0.301333874464035 
1334	 0.301723927259445 
1335	 0.302167296409607 
1336	 0.302562326192856 
1337	 0.302949845790863 
1338	 0.30332538485527 
1339	 0.303660213947296 
1340	 0.30401211977005 
1341	 0.304353475570679 
1342	 0.304731875658035 
1343	 0.305129498243332 
1344	 0.305486708879471 
1345	 0.305884659290314 
1346	 0.306262999773026 
1347	 0.306602329015732 
1348	 0.306952983140945 
1349	 0.307269126176834 
1350	 0.307610332965851 
1351	 0.307906270027161 
1352	 0.308171629905701 
1353	 0.30845919251442 
1354	 0.308715045452118 
1355	 0.309000700712204 
1356	 0.309320390224457 
1357	 0.309636533260345 
1358	 0.309950143098831 
1359	 0.310274571180344 
1360	 0.310607582330704 
1361	 0.310948997735977 
1362	 0.311302214860916 
1363	 0.311648726463318 
1364	 0.312018066644669 
1365	 0.31235408782959 
1366	 0.312674939632416 
1367	 0.312977075576782 
1368	 0.313270330429077 
1369	 0.313521951436996 
1370	 0.313781052827835 
1371	 0.314035177230835 
1372	 0.314234703779221 
1373	 0.314429014921188 
1374	 0.314594238996506 
1375	 0.31467404961586 
1376	 0.314743220806122 
1377	 0.314777702093124 
1378	 0.314758479595184 
1379	 0.314677834510803 
1380	 0.31441143155098 
1381	 0.314101696014404 
1382	 0.313480496406555 
1383	 0.312719881534576 
1384	 0.311610132455826 
1385	 0.310241490602493 
1386	 0.308649182319641 
1387	 0.306695938110352 
1388	 0.304736405611038 
1389	 0.302466243505478 
1390	 0.30040842294693 
1391	 0.298158913850784 
1392	 0.296309888362885 
1393	 0.294536381959915 
1394	 0.293158322572708 
1395	 0.292091012001038 
1396	 0.291266322135925 
1397	 0.290813624858856 
1398	 0.290464699268341 
1399	 0.290373265743256 
1400	 0.290367186069489 
1401	 0.290433168411255 
1402	 0.290528506040573 
1403	 0.29058912396431 
1404	 0.290683001279831 
1405	 0.290801346302032 
1406	 0.290939450263977 
1407	 0.291129678487778 
1408	 0.291371375322342 
1409	 0.291571706533432 
1410	 0.291804254055023 
1411	 0.292156368494034 
1412	 0.292499333620071 
1413	 0.29305973649025 
1414	 0.293722718954086 
1415	 0.294635951519012 
1416	 0.295696765184402 
1417	 0.297002047300339 
1418	 0.298657208681107 
1419	 0.300227850675583 
1420	 0.302034080028534 
1421	 0.303646057844162 
1422	 0.305301904678345 
1423	 0.306725919246674 
1424	 0.308071076869965 
1425	 0.309201747179031 
1426	 0.31012436747551 
1427	 0.310918927192688 
1428	 0.311502307653427 
1429	 0.312056750059128 
1430	 0.312489062547684 
1431	 0.3128562271595 
1432	 0.313127428293228 
1433	 0.313369333744049 
1434	 0.313524305820465 
1435	 0.313643127679825 
1436	 0.313783526420593 
1437	 0.313931673765183 
1438	 0.314062088727951 
1439	 0.314201563596725 
1440	 0.31435438990593 
1441	 0.314501404762268 
1442	 0.314679473638535 
1443	 0.314902573823929 
1444	 0.315161168575287 
1445	 0.315399587154388 
1446	 0.315654903650284 
1447	 0.315918862819672 
1448	 0.316222339868546 
1449	 0.316540271043777 
1450	 0.316877603530884 
1451	 0.317256599664688 
1452	 0.317611426115036 
1453	 0.317959696054459 
1454	 0.318337827920914 
1455	 0.318729907274246 
1456	 0.319132536649704 
1457	 0.319551199674606 
1458	 0.319969415664673 
1459	 0.320408076047897 
1460	 0.320829451084137 
1461	 0.321228295564651 
1462	 0.321669369935989 
1463	 0.322124689817429 
1464	 0.322579085826874 
1465	 0.323094755411148 
1466	 0.323548465967178 
1467	 0.323944628238678 
1468	 0.32436865568161 
1469	 0.324765563011169 
1470	 0.325195491313934 
1471	 0.325672924518585 
1472	 0.326128572225571 
1473	 0.326574712991714 
1474	 0.327034085988998 
1475	 0.327517837285995 
1476	 0.327950924634933 
1477	 0.328361451625824 
1478	 0.328808486461639 
1479	 0.329243719577789 
1480	 0.329668045043945 
1481	 0.330111771821976 
1482	 0.330527126789093 
1483	 0.330914735794067 
1484	 0.331299304962158 
1485	 0.33167627453804 
1486	 0.332060724496841 
1487	 0.332438558340073 
1488	 0.332759112119675 
1489	 0.333065390586853 
1490	 0.333439886569977 
1491	 0.333796352148056 
1492	 0.334128648042679 
1493	 0.334454029798508 
1494	 0.334791570901871 
1495	 0.3350690305233 
1496	 0.33530381321907 
1497	 0.335551202297211 
1498	 0.335766047239304 
1499	 0.336016893386841 
1500	 0.33630108833313 
1501	 0.336517304182053 
1502	 0.336710900068283 
1503	 0.336923003196716 
1504	 0.337090373039246 
1505	 0.337284058332443 
1506	 0.337530314922333 
1507	 0.337715834379196 
1508	 0.337856948375702 
1509	 0.338026940822601 
1510	 0.338189154863358 
1511	 0.33835580945015 
1512	 0.338528901338577 
1513	 0.338699817657471 
1514	 0.338873207569122 
1515	 0.339048832654953 
1516	 0.339217871427536 
1517	 0.339407563209534 
1518	 0.339606374502182 
1519	 0.339793622493744 
1520	 0.340001881122589 
1521	 0.340199291706085 
1522	 0.340382725000381 
1523	 0.340569138526917 
1524	 0.340736001729965 
1525	 0.340928435325623 
1526	 0.341128975152969 
1527	 0.341342002153397 
1528	 0.341598689556122 
1529	 0.341830432415009 
1530	 0.342043042182922 
1531	 0.342269659042358 
1532	 0.342516958713531 
1533	 0.34272563457489 
1534	 0.342945098876953 
1535	 0.343173265457153 
1536	 0.343368947505951 
1537	 0.343584418296814 
1538	 0.343813538551331 
1539	 0.344026654958725 
1540	 0.344250351190567 
1541	 0.344504147768021 
1542	 0.344787895679474 
1543	 0.345094978809357 
1544	 0.345391780138016 
1545	 0.345677614212036 
1546	 0.34597384929657 
1547	 0.34624370932579 
1548	 0.346556723117828 
1549	 0.346892952919006 
1550	 0.34716808795929 
1551	 0.347472876310349 
1552	 0.347792625427246 
1553	 0.348086804151535 
1554	 0.348419696092606 
1555	 0.348789662122726 
1556	 0.349110096693039 
1557	 0.349427074193954 
1558	 0.34981706738472 
1559	 0.350175976753235 
1560	 0.350547552108765 
1561	 0.350974231958389 
1562	 0.351339966058731 
1563	 0.351669281721115 
1564	 0.352023065090179 
1565	 0.352398961782455 
1566	 0.352762490510941 
1567	 0.353130608797073 
1568	 0.353507339954376 
1569	 0.35388371348381 
1570	 0.354254722595215 
1571	 0.354630351066589 
1572	 0.355017274618149 
1573	 0.355394273996353 
1574	 0.35578978061676 
1575	 0.356213063001633 
1576	 0.356631129980087 
1577	 0.357060015201569 
1578	 0.357470840215683 
1579	 0.357878535985947 
1580	 0.358273893594742 
1581	 0.358647644519806 
1582	 0.359035700559616 
1583	 0.359410971403122 
1584	 0.35981959104538 
1585	 0.360254973173141 
1586	 0.360677391290665 
1587	 0.361124783754349 
1588	 0.36154705286026 
1589	 0.361945569515228 
1590	 0.36235648393631 
1591	 0.36275926232338 
1592	 0.363179355859756 
1593	 0.363614201545715 
1594	 0.364020168781281 
1595	 0.364420413970947 
1596	 0.364836186170578 
1597	 0.365236848592758 
1598	 0.365672469139099 
1599	 0.366127461194992 
1600	 0.366584628820419 
1601	 0.367069900035858 
1602	 0.367526352405548 
1603	 0.367982268333435 
1604	 0.368440955877304 
1605	 0.368886202573776 
1606	 0.369315654039383 
1607	 0.369771867990494 
1608	 0.370163679122925 
1609	 0.370486706495285 
1610	 0.370858162641525 
1611	 0.371193408966064 
1612	 0.371579617261887 
1613	 0.372031569480896 
1614	 0.372455894947052 
1615	 0.372871428728104 
1616	 0.37330436706543 
1617	 0.373756945133209 
1618	 0.374179691076279 
1619	 0.374609649181366 
1620	 0.375022292137146 
1621	 0.375388354063034 
1622	 0.375790864229202 
1623	 0.376233130693436 
1624	 0.376625746488571 
1625	 0.376997411251068 
1626	 0.377376198768616 
1627	 0.377721011638641 
1628	 0.378080397844315 
1629	 0.378471255302429 
1630	 0.378843635320663 
1631	 0.379186064004898 
1632	 0.379549503326416 
1633	 0.379931807518005 
1634	 0.380293548107147 
1635	 0.380668342113495 
1636	 0.381008237600327 
1637	 0.381308108568192 
1638	 0.381629377603531 
1639	 0.381919413805008 
1640	 0.382274478673935 
1641	 0.382685601711273 
1642	 0.383057147264481 
1643	 0.38344344496727 
1644	 0.383799880743027 
1645	 0.384131103754044 
1646	 0.384476900100708 
1647	 0.38482528924942 
1648	 0.38516953587532 
1649	 0.385492771863937 
1650	 0.38582643866539 
1651	 0.386176496744156 
1652	 0.386513739824295 
1653	 0.386844396591187 
1654	 0.387183457612991 
1655	 0.387518793344498 
1656	 0.38786256313324 
1657	 0.388224005699158 
1658	 0.388577520847321 
1659	 0.38891738653183 
1660	 0.38927087187767 
1661	 0.389650106430054 
1662	 0.389965534210205 
1663	 0.390266269445419 
1664	 0.390562862157822 
1665	 0.390800207853317 
1666	 0.391138583421707 
1667	 0.391433000564575 
1668	 0.391746163368225 
1669	 0.392093271017075 
1670	 0.392415761947632 
1671	 0.392771631479263 
1672	 0.39310160279274 
1673	 0.393390417098999 
1674	 0.393675804138184 
1675	 0.393917471170425 
1676	 0.394164115190506 
1677	 0.394460290670395 
1678	 0.394754260778427 
1679	 0.395037800073624 
1680	 0.395333558320999 
1681	 0.395627349615097 
1682	 0.395927548408508 
1683	 0.39625084400177 
1684	 0.396573156118393 
1685	 0.396857470273972 
1686	 0.39714103937149 
1687	 0.397439956665039 
1688	 0.39771568775177 
1689	 0.398017823696136 
1690	 0.398326814174652 
1691	 0.398605734109879 
1692	 0.398928821086884 
1693	 0.399263918399811 
1694	 0.399545341730118 
1695	 0.399770379066467 
1696	 0.400007784366608 
1697	 0.40027329325676 
1698	 0.400506556034088 
1699	 0.400834560394287 
1700	 0.401196420192719 
1701	 0.401462972164154 
1702	 0.40177646279335 
1703	 0.402048051357269 
1704	 0.402215629816055 
1705	 0.402442336082459 
1706	 0.402662247419357 
1707	 0.4028599858284 
1708	 0.403121501207352 
1709	 0.403364777565002 
1710	 0.403615891933441 
1711	 0.403917074203491 
1712	 0.404182851314545 
1713	 0.404422432184219 
1714	 0.404676616191864 
1715	 0.404933482408524 
1716	 0.405186414718628 
1717	 0.405421942472458 
1718	 0.405638217926025 
1719	 0.405806243419647 
1720	 0.405944228172302 
1721	 0.406134217977524 
1722	 0.406334280967712 
1723	 0.406538754701614 
1724	 0.406788915395737 
1725	 0.40700563788414 
1726	 0.407120198011398 
1727	 0.407280474901199 
1728	 0.407418996095657 
1729	 0.407597601413727 
1730	 0.407835781574249 
1731	 0.408026814460754 
1732	 0.408218741416931 
1733	 0.408378571271896 
1734	 0.40851303935051 
1735	 0.408644527196884 
1736	 0.408723831176758 
1737	 0.408843725919724 
1738	 0.408997803926468 
1739	 0.409124225378037 
1740	 0.409279853105545 
1741	 0.409436255693436 
1742	 0.409546226263046 
1743	 0.409701734781265 
1744	 0.409868568181992 
1745	 0.410015076398849 
1746	 0.41020679473877 
1747	 0.410410612821579 
1748	 0.410629838705063 
1749	 0.410818964242935 
1750	 0.410956770181656 
1751	 0.41108763217926 
1752	 0.41121432185173 
1753	 0.411419659852982 
1754	 0.411660462617874 
1755	 0.411815583705902 
1756	 0.411965429782867 
1757	 0.412101328372955 
1758	 0.412155747413635 
1759	 0.412279099225998 
1760	 0.412451058626175 
1761	 0.412594348192215 
1762	 0.412809103727341 
1763	 0.413018852472305 
1764	 0.413149058818817 
1765	 0.413245767354965 
1766	 0.413271337747574 
1767	 0.41331735253334 
1768	 0.413413196802139 
1769	 0.413457632064819 
1770	 0.413550287485123 
1771	 0.413645505905151 
1772	 0.413700073957443 
1773	 0.413827568292618 
1774	 0.413981020450592 
1775	 0.41410419344902 
1776	 0.414249092340469 
1777	 0.414362549781799 
1778	 0.414451062679291 
1779	 0.414504587650299 
1780	 0.414541155099869 
1781	 0.414662778377533 
1782	 0.414805799722672 
1783	 0.414976269006729 
1784	 0.415147572755814 
1785	 0.415271878242493 
1786	 0.415326535701752 
1787	 0.41536557674408 
1788	 0.41543260216713 
1789	 0.415494740009308 
1790	 0.415552377700806 
1791	 0.415596753358841 
1792	 0.415640115737915 
1793	 0.415669560432434 
1794	 0.415725886821747 
1795	 0.415825217962265 
1796	 0.415927797555923 
1797	 0.416096866130829 
1798	 0.416323572397232 
1799	 0.416531592607498 
1800	 0.416687279939651 
1801	 0.416752815246582 
1802	 0.416791766881943 
1803	 0.41685163974762 
1804	 0.41692116856575 
1805	 0.417010903358459 
1806	 0.417030692100525 
1807	 0.417030274868011 
1808	 0.417053371667862 
1809	 0.417042374610901 
1810	 0.417090684175491 
1811	 0.417132169008255 
1812	 0.417159855365753 
1813	 0.417211204767227 
1814	 0.417193979024887 
1815	 0.41716805100441 
1816	 0.417216390371323 
1817	 0.417238473892212 
1818	 0.417305469512939 
1819	 0.417377173900604 
1820	 0.417333573102951 
1821	 0.417337566614151 
1822	 0.41729998588562 
1823	 0.417279124259949 
1824	 0.417363941669464 
1825	 0.417403310537338 
1826	 0.417486727237701 
1827	 0.417602956295013 
1828	 0.417631268501282 
1829	 0.417673975229263 
1830	 0.417665153741837 
1831	 0.430996030569077 
1832	 0.430902689695358 
1833	 0.430830299854279 
1834	 0.430667906999588 
1835	 0.430574387311935 
1836	 0.430507302284241 
1837	 0.430436462163925 
1838	 0.430417001247406 
1839	 0.430364310741425 
1840	 0.430160880088806 
1841	 0.429875701665878 
1842	 0.429548382759094 
1843	 0.429209500551224 
1844	 0.428917586803436 
1845	 0.428733468055725 
1846	 0.428418844938278 
1847	 0.428058564662933 
1848	 0.427667498588562 
1849	 0.427284985780716 
1850	 0.426930785179138 
1851	 0.426608383655548 
1852	 0.426252216100693 
1853	 0.425825268030167 
1854	 0.425390750169754 
1855	 0.424993813037872 
1856	 0.42463544011116 
1857	 0.424247831106186 
1858	 0.423899531364441 
1859	 0.42348638176918 
1860	 0.422951966524124 
1861	 0.4224534034729 
1862	 0.421958982944489 
1863	 0.421388149261475 
1864	 0.420818001031876 
1865	 0.42024552822113 
1866	 0.419633954763412 
1867	 0.418938457965851 
1868	 0.418279558420181 
1869	 0.417688727378845 
1870	 0.416922777891159 
1871	 0.41606193780899 
1872	 0.415268003940582 
1873	 0.414400488138199 
1874	 0.413471579551697 
1875	 0.412473529577255 
1876	 0.411385774612427 
1877	 0.410366356372833 
1878	 0.409300595521927 
1879	 0.408289402723312 
1880	 0.407319039106369 
1881	 0.406347304582596 
1882	 0.405231148004532 
1883	 0.403987497091293 
1884	 0.402700841426849 
1885	 0.401350080966949 
1886	 0.399926692247391 
1887	 0.398533493280411 
1888	 0.397095113992691 
1889	 0.395687341690063 
1890	 0.394105017185211 
1891	 0.39243283867836 
1892	 0.390610784292221 
1893	 0.388605028390884 
1894	 0.386672347784042 
1895	 0.384679585695267 
1896	 0.382677167654037 
1897	 0.380640953779221 
1898	 0.378425925970078 
1899	 0.376257985830307 
1900	 0.374040842056274 
1901	 0.371834874153137 
1902	 0.369684010744095 
1903	 0.367663830518723 
1904	 0.365793585777283 
1905	 0.364061444997787 
1906	 0.362418383359909 
1907	 0.3609878718853 
1908	 0.35966295003891 
1909	 0.358386874198914 
1910	 0.3573217689991 
1911	 0.356455236673355 
1912	 0.355669230222702 
1913	 0.35495987534523 
1914	 0.354499995708466 
1915	 0.354196429252625 
1916	 0.353946179151535 
1917	 0.35379433631897 
1918	 0.35368224978447 
1919	 0.35350975394249 
1920	 0.353334963321686 
1921	 0.353234440088272 
1922	 0.353162497282028 
1923	 0.353102624416351 
1924	 0.353068232536316 
1925	 0.353161185979843 
1926	 0.353285819292068 
1927	 0.353362262248993 
1928	 0.353415966033936 
1929	 0.35344135761261 
1930	 0.353413969278336 
1931	 0.353399664163589 
1932	 0.353405058383942 
1933	 0.353367328643799 
1934	 0.353276073932648 
1935	 0.35320720076561 
1936	 0.353204905986786 
1937	 0.35314217209816 
1938	 0.353036105632782 
1939	 0.352969646453857 
1940	 0.352895587682724 
1941	 0.352773010730743 
1942	 0.35267037153244 
1943	 0.352532178163528 
1944	 0.352416664361954 
1945	 0.352253526449203 
1946	 0.352147161960602 
1947	 0.352086097002029 
1948	 0.352049648761749 
1949	 0.351940602064133 
1950	 0.351827770471573 
1951	 0.351850181818008 
1952	 0.351884603500366 
1953	 0.351995825767517 
1954	 0.352190315723419 
1955	 0.352255374193192 
1956	 0.352306634187698 
1957	 0.352418303489685 
1958	 0.352540880441666 
1959	 0.352659970521927 
1960	 0.352808088064194 
1961	 0.352996349334717 
1962	 0.353169053792953 
1963	 0.3533556163311 
1964	 0.353564977645874 
1965	 0.353713899850845 
1966	 0.353789299726486 
1967	 0.353868126869202 
1968	 0.353954166173935 
1969	 0.354030638933182 
1970	 0.354111105203629 
1971	 0.354256421327591 
1972	 0.354264229536057 
1973	 0.354177057743073 
1974	 0.354110598564148 
1975	 0.354036390781403 
1976	 0.353985279798508 
1977	 0.354022294282913 
1978	 0.354063838720322 
1979	 0.353963136672974 
1980	 0.3539077937603 
1981	 0.353947430849075 
1982	 0.354013830423355 
1983	 0.354083985090256 
1984	 0.354275971651077 
1985	 0.354444891214371 
1986	 0.354597866535187 
1987	 0.354728043079376 
1988	 0.354906529188156 
1989	 0.355067014694214 
1990	 0.3552425801754 
1991	 0.355523765087128 
1992	 0.355878829956055 
1993	 0.356231808662415 
1994	 0.35656926035881 
1995	 0.35686457157135 
1996	 0.357227802276611 
1997	 0.357575118541718 
1998	 0.358021080493927 
1999	 0.358547240495682 
2000	 0.359089195728302 
2001	 0.359646201133728 
2002	 0.360233545303345 
2003	 0.360811859369278 
2004	 0.361448675394058 
2005	 0.362198621034622 
2006	 0.363020688295364 
2007	 0.363831251859665 
2008	 0.364661365747452 
2009	 0.365531921386719 
2010	 0.36642798781395 
2011	 0.367367297410965 
2012	 0.368353724479675 
2013	 0.369394272565842 
2014	 0.370408236980438 
2015	 0.37139043211937 
2016	 0.372466087341309 
2017	 0.373627454042435 
2018	 0.374768733978271 
2019	 0.375925362110138 
2020	 0.37712749838829 
2021	 0.378323316574097 
2022	 0.379528969526291 
2023	 0.380844533443451 
2024	 0.382078111171722 
2025	 0.38325497508049 
2026	 0.384435296058655 
2027	 0.385627090930939 
2028	 0.386751264333725 
2029	 0.38786381483078 
2030	 0.388983011245728 
2031	 0.3900366127491 
2032	 0.391149014234543 
2033	 0.392318159341812 
2034	 0.393400311470032 
2035	 0.394469887018204 
2036	 0.395562052726746 
2037	 0.396603763103485 
2038	 0.397537618875504 
2039	 0.398536801338196 
2040	 0.399608910083771 
2041	 0.400576651096344 
2042	 0.401456415653229 
2043	 0.402441829442978 
2044	 0.403384566307068 
2045	 0.404184103012085 
2046	 0.40496239066124 
2047	 0.405768036842346 
2048	 0.406553477048874 
2049	 0.407299757003784 
2050	 0.408020943403244 
2051	 0.408744812011719 
2052	 0.409422755241394 
2053	 0.41001883149147 
2054	 0.410655915737152 
2055	 0.41130855679512 
2056	 0.411973685026169 
2057	 0.412672460079193 
2058	 0.413285672664642 
2059	 0.41394105553627 
2060	 0.414514392614365 
2061	 0.415060728788376 
2062	 0.415678322315216 
2063	 0.416237384080887 
2064	 0.41675740480423 
2065	 0.417241156101227 
2066	 0.417626053094864 
2067	 0.418085008859634 
2068	 0.418596744537354 
2069	 0.419024497270584 
2070	 0.419386297464371 
2071	 0.419812828302383 
2072	 0.42024290561676 
2073	 0.420643508434296 
2074	 0.42102912068367 
2075	 0.421435862779617 
2076	 0.421759575605392 
2077	 0.42204686999321 
2078	 0.422362446784973 
2079	 0.422747910022736 
2080	 0.423053681850433 
2081	 0.423269748687744 
2082	 0.423543781042099 
2083	 0.423804104328156 
2084	 0.424101024866104 
2085	 0.424518436193466 
2086	 0.424808263778687 
2087	 0.42504608631134 
2088	 0.425276339054108 
2089	 0.425430327653885 
2090	 0.425543189048767 
2091	 0.425844967365265 
2092	 0.426049172878265 
2093	 0.426171630620956 
2094	 0.426295429468155 
2095	 0.426203697919846 
2096	 0.426045536994934 
2097	 0.425999611616135 
2098	 0.425966620445251 
2099	 0.425946474075317 
2100	 0.426020711660385 
2101	 0.426048189401627 
2102	 0.42604848742485 
2103	 0.426017045974731 
2104	 0.425968557596207 
2105	 0.425921827554703 
2106	 0.425847768783569 
2107	 0.425798743963242 
2108	 0.425709187984467 
2109	 0.425546944141388 
2110	 0.425353974103928 
2111	 0.425228893756866 
2112	 0.42527911067009 
2113	 0.425386309623718 
2114	 0.425391554832459 
2115	 0.425407379865646 
2116	 0.425450533628464 
2117	 0.425387859344482 
2118	 0.425410747528076 
2119	 0.425578117370605 
2120	 0.425642758607864 
2121	 0.425617873668671 
2122	 0.425694316625595 
2123	 0.425852805376053 
2124	 0.425924867391586 
2125	 0.425996780395508 
2126	 0.4260573387146 
2127	 0.42608979344368 
2128	 0.426049053668976 
2129	 0.426036328077316 
2130	 0.425985336303711 
2131	 0.425830781459808 
2132	 0.425780713558197 
2133	 0.425710499286652 
2134	 0.425678282976151 
2135	 0.425548642873764 
2136	 0.425479590892792 
2137	 0.42519137263298 
2138	 0.424801677465439 
2139	 0.424280524253845 
2140	 0.423532724380493 
2141	 0.422837853431702 
2142	 0.422085136175156 
2143	 0.421249151229858 
2144	 0.42043724656105 
2145	 0.419489681720734 
2146	 0.418317377567291 
2147	 0.417129516601563 
2148	 0.415977269411087 
2149	 0.414771407842636 
2150	 0.413451880216599 
2151	 0.412164568901062 
2152	 0.410877734422684 
2153	 0.409423112869263 
2154	 0.408192366361618 
2155	 0.407118111848831 
2156	 0.406042873859406 
2157	 0.405051290988922 
2158	 0.404057174921036 
2159	 0.403022110462189 
2160	 0.402116388082504 
2161	 0.401268154382706 
2162	 0.400540322065353 
2163	 0.399904668331146 
2164	 0.399408131837845 
2165	 0.399042069911957 
2166	 0.398633450269699 
2167	 0.398288905620575 
2168	 0.397984951734543 
2169	 0.397559523582459 
2170	 0.39709484577179 
2171	 0.396753996610641 
2172	 0.396340817213058 
2173	 0.395903706550598 
2174	 0.39548447728157 
2175	 0.395045310258865 
2176	 0.394563347101212 
2177	 0.394062042236328 
2178	 0.393605887889862 
2179	 0.393055856227875 
2180	 0.392442524433136 
2181	 0.391729682683945 
2182	 0.390991240739822 
2183	 0.390094846487045 
2184	 0.389031291007996 
2185	 0.387948989868164 
2186	 0.386761695146561 
2187	 0.385540813207626 
2188	 0.384285718202591 
2189	 0.382883727550507 
2190	 0.381466954946518 
2191	 0.380117923021317 
2192	 0.378714054822922 
2193	 0.377350211143494 
2194	 0.376079827547073 
2195	 0.374688982963562 
2196	 0.373269706964493 
2197	 0.3719083070755 
2198	 0.370398283004761 
2199	 0.368849545717239 
2200	 0.367056906223297 
2201	 0.365109264850616 
2202	 0.363029599189758 
2203	 0.360530138015747 
2204	 0.358337581157684 
2205	 0.355981111526489 
2206	 0.354073524475098 
2207	 0.352129340171814 
2208	 0.351019680500031 
2209	 0.350497871637344 
2210	 0.350379019975662 
2211	 0.350852906703949 
2212	 0.351836740970612 
2213	 0.353090405464172 
2214	 0.354536235332489 
2215	 0.356155723333359 
2216	 0.357623726129532 
2217	 0.358834713697433 
2218	 0.359687685966492 
2219	 0.360164523124695 
2220	 0.360222607851028 
2221	 0.360009908676147 
2222	 0.359345018863678 
2223	 0.358474969863892 
2224	 0.357319831848145 
2225	 0.356006920337677 
2226	 0.354381322860718 
2227	 0.352600693702698 
2228	 0.350647002458572 
2229	 0.348472595214844 
2230	 0.346065491437912 
2231	 0.343485772609711 
2232	 0.340708673000336 
2233	 0.337720721960068 
2234	 0.334479212760925 
2235	 0.33111235499382 
2236	 0.327588230371475 
2237	 0.3238505423069 
2238	 0.319852203130722 
2239	 0.315776139497757 
2240	 0.311698257923126 
2241	 0.307656109333038 
2242	 0.30382776260376 
2243	 0.300134301185608 
2244	 0.29648357629776 
2245	 0.293103635311127 
2246	 0.290176868438721 
2247	 0.287616640329361 
2248	 0.28523376584053 
2249	 0.283210694789886 
2250	 0.281760364770889 
2251	 0.280548483133316 
2252	 0.279662221670151 
2253	 0.279296100139618 
2254	 0.279256641864777 
2255	 0.279396921396255 
2256	 0.279972523450851 
2257	 0.281243801116943 
2258	 0.282385766506195 
2259	 0.283786296844482 
2260	 0.28515613079071 
2261	 0.286706209182739 
2262	 0.288068801164627 
2263	 0.289369493722916 
2264	 0.290701806545258 
2265	 0.292134672403336 
2266	 0.293266773223877 
2267	 0.294246584177017 
2268	 0.295179098844528 
2269	 0.295885860919952 
2270	 0.296570777893066 
2271	 0.297323673963547 
2272	 0.297885984182358 
2273	 0.298188298940659 
2274	 0.298388451337814 
2275	 0.29857325553894 
2276	 0.298746138811111 
2277	 0.298779189586639 
2278	 0.298694461584091 
2279	 0.298387259244919 
2280	 0.297827571630478 
2281	 0.297347813844681 
2282	 0.296752750873566 
2283	 0.295721620321274 
2284	 0.294594049453735 
2285	 0.293417453765869 
2286	 0.29195037484169 
2287	 0.29070121049881 
2288	 0.289725661277771 
2289	 0.288508355617523 
2290	 0.28718575835228 
2291	 0.285914659500122 
2292	 0.284565299749374 
2293	 0.283321648836136 
2294	 0.282149612903595 
2295	 0.280957013368607 
2296	 0.279746890068054 
2297	 0.278662145137787 
2298	 0.277576446533203 
2299	 0.27665787935257 
2300	 0.275979697704315 
2301	 0.275170296430588 
2302	 0.274315983057022 
2303	 0.273592263460159 
2304	 0.273016631603241 
2305	 0.272256255149841 
2306	 0.271495014429092 
2307	 0.270706951618195 
2308	 0.269823223352432 
2309	 0.268833249807358 
2310	 0.267701208591461 
2311	 0.266804128885269 
2312	 0.265960931777954 
2313	 0.265010535717011 
2314	 0.264260500669479 
2315	 0.263323277235031 
2316	 0.262121617794037 
2317	 0.260952740907669 
2318	 0.25997656583786 
2319	 0.259143769741058 
2320	 0.258372008800507 
2321	 0.257611006498337 
2322	 0.256828427314758 
2323	 0.255996584892273 
2324	 0.255244135856628 
2325	 0.254533797502518 
2326	 0.253655701875687 
2327	 0.252878427505493 
2328	 0.252320557832718 
2329	 0.251586735248566 
2330	 0.250820606946945 
2331	 0.250266999006271 
2332	 0.249627500772476 
2333	 0.248853802680969 
2334	 0.24828989803791 
2335	 0.247947424650192 
2336	 0.247697934508324 
2337	 0.247397765517235 
2338	 0.247128590941429 
2339	 0.247067242860794 
2340	 0.246806964278221 
2341	 0.24662122130394 
2342	 0.246824026107788 
2343	 0.246962055563927 
2344	 0.247161313891411 
2345	 0.247502282261848 
2346	 0.247715398669243 
2347	 0.247901901602745 
2348	 0.24826480448246 
2349	 0.24885068833828 
2350	 0.24945142865181 
2351	 0.250265210866928 
2352	 0.250891298055649 
2353	 0.251429319381714 
2354	 0.252156138420105 
2355	 0.252883344888687 
2356	 0.253678798675537 
2357	 0.25465002655983 
2358	 0.255509465932846 
2359	 0.256266862154007 
2360	 0.257290065288544 
2361	 0.258478909730911 
2362	 0.259596645832062 
2363	 0.260817050933838 
2364	 0.261987566947937 
2365	 0.263174176216125 
2366	 0.264211595058441 
2367	 0.265101343393326 
2368	 0.266284704208374 
2369	 0.267474114894867 
2370	 0.268598139286041 
2371	 0.270013779401779 
2372	 0.271244794130325 
2373	 0.272303402423859 
2374	 0.273278802633286 
2375	 0.274354636669159 
2376	 0.275023490190506 
2377	 0.27520364522934 
2378	 0.275673627853394 
2379	 0.276110053062439 
2380	 0.276531189680099 
2381	 0.277093470096588 
2382	 0.277505964040756 
2383	 0.277714043855667 
2384	 0.277997702360153 
2385	 0.278358399868011 
2386	 0.278549581766129 
2387	 0.278645664453506 
2388	 0.278772354125977 
2389	 0.278720736503601 
2390	 0.278823435306549 
2391	 0.278974801301956 
2392	 0.279275178909302 
2393	 0.279832273721695 
2394	 0.280089229345322 
2395	 0.280377715826035 
2396	 0.280494779348373 
2397	 0.280169457197189 
2398	 0.280222535133362 
2399	 0.280361086130142 
2400	 0.28062915802002 
2401	 0.281202107667923 
2402	 0.281619101762772 
2403	 0.282138675451279 
2404	 0.282426238059998 
2405	 0.282507836818695 
2406	 0.2827108502388 
2407	 0.282747179269791 
2408	 0.28294450044632 
2409	 0.283485174179077 
2410	 0.283564418554306 
2411	 0.283377468585968 
2412	 0.283393651247025 
2413	 0.283214092254639 
2414	 0.283082008361816 
2415	 0.283212333917618 
2416	 0.28320774435997 
2417	 0.28304135799408 
2418	 0.282878965139389 
2419	 0.282718777656555 
2420	 0.282419085502625 
2421	 0.282029211521149 
2422	 0.281610935926437 
2423	 0.281086355447769 
2424	 0.280762404203415 
2425	 0.280446767807007 
2426	 0.279963344335556 
2427	 0.279651910066605 
2428	 0.279150307178497 
2429	 0.278369247913361 
2430	 0.277669161558151 
2431	 0.276969522237778 
2432	 0.276240795850754 
2433	 0.275456190109253 
2434	 0.274678528308868 
2435	 0.273863285779953 
2436	 0.273115009069443 
2437	 0.272289425134659 
2438	 0.271711021661758 
2439	 0.271394312381744 
2440	 0.270851403474808 
2441	 0.270318925380707 
2442	 0.269721478223801 
2443	 0.268993765115738 
2444	 0.268455862998962 
2445	 0.268102020025253 
2446	 0.267336219549179 
2447	 0.266509234905243 
2448	 0.265474915504456 
2449	 0.263940125703812 
2450	 0.262904435396194 
2451	 0.26191857457161 
2452	 0.261407256126404 
2453	 0.261328816413879 
2454	 0.26134929060936 
2455	 0.260927349328995 
2456	 0.260071754455566 
2457	 0.258926123380661 
2458	 0.257749617099762 
2459	 0.256961524486542 
2460	 0.256215184926987 
2461	 0.255770921707153 
2462	 0.255501389503479 
2463	 0.254767388105392 
2464	 0.254736095666885 
2465	 0.253977447748184 
2466	 0.252153217792511 
2467	 0.251182347536087 
2468	 0.250215232372284 
2469	 0.249348714947701 
2470	 0.249523133039474 
2471	 0.249189630150795 
2472	 0.24828577041626 
2473	 0.24752801656723 
2474	 0.24661760032177 
2475	 0.246021866798401 
2476	 0.245577603578568 
2477	 0.24517060816288 
2478	 0.245274037122726 
2479	 0.244913995265961 
2480	 0.244220674037933 
2481	 0.243641048669815 
2482	 0.242716461420059 
2483	 0.242178738117218 
2484	 0.241983994841576 
2485	 0.241644322872162 
2486	 0.241388916969299 
2487	 0.24116924405098 
2488	 0.241063103079796 
2489	 0.240633755922318 
2490	 0.240201488137245 
2491	 0.239558666944504 
2492	 0.23821684718132 
2493	 0.237671464681625 
2494	 0.237301543354988 
2495	 0.23732040822506 
2496	 0.238185033202171 
2497	 0.238355964422226 
2498	 0.238654255867004 
2499	 0.238408178091049 
2500	 0.237208530306816 
