
Text conversion of header file \A_MEDIDAS\PROJETOS\BRASIL\BLOCO GAVIAO\JACOBINA\CANIF27\sco\CANIF27_008.46_00003.asd.ref
 -------------------------------------------------------------
Intemperizada                                                                                                                                               
The instrument number was  16586/1
New ASD spectrum file: Program version = 6.00 file version = 1.00
Spectrum saved: 10/16/2018 at 09:59:36
VNIR integration time : 34
VNIR channel 1 wavelength = 350 wavelength step = 1
There were 50 samples per data value
xmin = 350 xmax= 2500
ymin= 0 ymax= 1.25
The instrument digitizes spectral values to 16 bits
SWIR1 gain was 214 offset was 2097
SWIR2 gain was 513 offset was 2267
Join between VNIR and SWIR1 was 1000 nm
Join between SWIR1 and SWIR2 was 1830 nm
Absolute Reflectance is Enabled
The Absolute Reflectance File is abs165861.ref
VNIR dark signal subtracted
50 dark measurements taken Tue Oct 16 09:52:54 2018
DCC value was 0
Data is compared to a white reference:
60 white reference measurements taken Tue Oct 16 09:53:02 2018
There was no foreoptic attached
Spectrum file is reflectance data
GPS-Latitude is S0
GPS-Longitude is E0
GPS-Altitude is 0
GPS-UTC is Wed Dec 31 17:00:00 1969

Smart Detector
Serial#  0
Signal (A)  0.000E00
Dark (A)  0.000E00
Ref (A)  0.000E00
Status  0 - Uninitialized
Gain  E-4
Averaging  0
Temp (C)  0.0
Humid (%)  0.0

Reflectance Absolute
Wavelength	CANIF27_8.46_00003.asd.ref
350	 0.146292179822922 
351	 0.137371838092804 
352	 0.143076688051224 
353	 0.147364258766174 
354	 0.139534771442413 
355	 0.139909639954567 
356	 0.139725610613823 
357	 0.140125721693039 
358	 0.142725974321365 
359	 0.136498808860779 
360	 0.140746101737022 
361	 0.150372371077538 
362	 0.146161884069443 
363	 0.14189276099205 
364	 0.143257275223732 
365	 0.148416429758072 
366	 0.14717335999012 
367	 0.14594554901123 
368	 0.145540326833725 
369	 0.145842999219894 
370	 0.14819760620594 
371	 0.148011982440948 
372	 0.146054208278656 
373	 0.14526355266571 
374	 0.144625306129456 
375	 0.14709635078907 
376	 0.151204034686089 
377	 0.15118932723999 
378	 0.15208737552166 
379	 0.153042986989021 
380	 0.152761727571487 
381	 0.151062965393066 
382	 0.152020528912544 
383	 0.153193041682243 
384	 0.151572421193123 
385	 0.155368641018867 
386	 0.157416000962257 
387	 0.156608521938324 
388	 0.157687678933144 
389	 0.158780857920647 
390	 0.159005478024483 
391	 0.1587745398283 
392	 0.16087943315506 
393	 0.163003504276276 
394	 0.163637891411781 
395	 0.162560552358627 
396	 0.163889244198799 
397	 0.164565622806549 
398	 0.164783984422684 
399	 0.167017504572868 
400	 0.166699469089508 
401	 0.166172906756401 
402	 0.166839420795441 
403	 0.166681453585625 
404	 0.166948452591896 
405	 0.168483212590218 
406	 0.170962810516357 
407	 0.170017197728157 
408	 0.170251846313477 
409	 0.172070205211639 
410	 0.172897502779961 
411	 0.172686010599136 
412	 0.172729969024658 
413	 0.173834040760994 
414	 0.175855711102486 
415	 0.176350027322769 
416	 0.176357880234718 
417	 0.177252754569054 
418	 0.177694782614708 
419	 0.178577855229378 
420	 0.179813966155052 
421	 0.180747777223587 
422	 0.181829124689102 
423	 0.183074295520782 
424	 0.184194028377533 
425	 0.184476926922798 
426	 0.186042040586472 
427	 0.187371507287025 
428	 0.187171742320061 
429	 0.188393831253052 
430	 0.189489409327507 
431	 0.190351918339729 
432	 0.191716089844704 
433	 0.192845046520233 
434	 0.193895518779755 
435	 0.194997355341911 
436	 0.196084171533585 
437	 0.197030693292618 
438	 0.198153987526894 
439	 0.199625238776207 
440	 0.200663641095161 
441	 0.201824605464935 
442	 0.202985882759094 
443	 0.203647062182426 
444	 0.204347997903824 
445	 0.205323532223701 
446	 0.206437200307846 
447	 0.207027405500412 
448	 0.207537323236465 
449	 0.208230793476105 
450	 0.209113970398903 
451	 0.209340155124664 
452	 0.209966316819191 
453	 0.210929498076439 
454	 0.211381793022156 
455	 0.212115675210953 
456	 0.212817415595055 
457	 0.213299840688705 
458	 0.213887840509415 
459	 0.21464304625988 
460	 0.215379104018211 
461	 0.215894997119904 
462	 0.216369718313217 
463	 0.216958820819855 
464	 0.217604324221611 
465	 0.218082323670387 
466	 0.218746677041054 
467	 0.21939779818058 
468	 0.219910085201263 
469	 0.220569297671318 
470	 0.221070855855942 
471	 0.221570804715157 
472	 0.222320348024368 
473	 0.222975701093674 
474	 0.223609089851379 
475	 0.224249109625816 
476	 0.224851101636887 
477	 0.225669130682945 
478	 0.226574391126633 
479	 0.227367267012596 
480	 0.227846339344978 
481	 0.228611141443253 
482	 0.229553624987602 
483	 0.230271190404892 
484	 0.231124624609947 
485	 0.231917679309845 
486	 0.232640311121941 
487	 0.233592987060547 
488	 0.234483748674393 
489	 0.235243424773216 
490	 0.235884889960289 
491	 0.236463755369186 
492	 0.23708838224411 
493	 0.237726733088493 
494	 0.23827862739563 
495	 0.238945096731186 
496	 0.239679604768753 
497	 0.240431994199753 
498	 0.241200909018517 
499	 0.242053404450417 
500	 0.242926314473152 
501	 0.243748188018799 
502	 0.244602099061012 
503	 0.245420292019844 
504	 0.246200308203697 
505	 0.246989548206329 
506	 0.247695282101631 
507	 0.248426198959351 
508	 0.249215245246887 
509	 0.249860689043999 
510	 0.250540226697922 
511	 0.251240789890289 
512	 0.251893103122711 
513	 0.252525001764297 
514	 0.253198981285095 
515	 0.253926932811737 
516	 0.254662215709686 
517	 0.255221039056778 
518	 0.255729883909225 
519	 0.256306171417236 
520	 0.256858676671982 
521	 0.257430404424667 
522	 0.257996827363968 
523	 0.258508443832397 
524	 0.258977383375168 
525	 0.259448081254959 
526	 0.259921729564667 
527	 0.260338604450226 
528	 0.260768204927444 
529	 0.261247545480728 
530	 0.261767625808716 
531	 0.262212157249451 
532	 0.262594103813171 
533	 0.262955993413925 
534	 0.263363838195801 
535	 0.263932555913925 
536	 0.264459103345871 
537	 0.264833897352219 
538	 0.265158116817474 
539	 0.265656501054764 
540	 0.266222238540649 
541	 0.266692906618118 
542	 0.26720604300499 
543	 0.26767909526825 
544	 0.268156349658966 
545	 0.268771529197693 
546	 0.269207268953323 
547	 0.269640982151031 
548	 0.270184606313705 
549	 0.270615100860596 
550	 0.271063685417175 
551	 0.271517008543015 
552	 0.27192422747612 
553	 0.272349447011948 
554	 0.272745251655579 
555	 0.273073941469193 
556	 0.273321539163589 
557	 0.273694604635239 
558	 0.274128079414368 
559	 0.274553269147873 
560	 0.275091916322708 
561	 0.275567203760147 
562	 0.275915205478668 
563	 0.276161015033722 
564	 0.276494830846787 
565	 0.276800602674484 
566	 0.277041763067245 
567	 0.277339071035385 
568	 0.277513653039932 
569	 0.277582675218582 
570	 0.277586311101913 
571	 0.277406454086304 
572	 0.277324110269547 
573	 0.277413785457611 
574	 0.277595579624176 
575	 0.277921587228775 
576	 0.278253763914108 
577	 0.278495728969574 
578	 0.278673410415649 
579	 0.278842031955719 
580	 0.278962910175323 
581	 0.278973668813705 
582	 0.278852105140686 
583	 0.278715819120407 
584	 0.278616696596146 
585	 0.278533935546875 
586	 0.278319925069809 
587	 0.278152346611023 
588	 0.278214633464813 
589	 0.278617471456528 
590	 0.278885960578918 
591	 0.278962224721909 
592	 0.278957784175873 
593	 0.278809815645218 
594	 0.278663009405136 
595	 0.278597056865692 
596	 0.278599947690964 
597	 0.278464674949646 
598	 0.278201311826706 
599	 0.277866423130035 
600	 0.277478218078613 
601	 0.277116686105728 
602	 0.276774823665619 
603	 0.276408553123474 
604	 0.276080667972565 
605	 0.275859445333481 
606	 0.27576607465744 
607	 0.275761663913727 
608	 0.27571028470993 
609	 0.275591462850571 
610	 0.275425672531128 
611	 0.275240689516068 
612	 0.275039047002792 
613	 0.274792581796646 
614	 0.274473279714584 
615	 0.274210840463638 
616	 0.274042159318924 
617	 0.273911386728287 
618	 0.273641794919968 
619	 0.273371487855911 
620	 0.273096770048141 
621	 0.272811353206635 
622	 0.272644221782684 
623	 0.272494345903397 
624	 0.272278279066086 
625	 0.271956413984299 
626	 0.271744817495346 
627	 0.271564602851868 
628	 0.271353483200073 
629	 0.271159470081329 
630	 0.270863562822342 
631	 0.270550131797791 
632	 0.270334422588348 
633	 0.270184099674225 
634	 0.269945085048676 
635	 0.269651681184769 
636	 0.269473105669022 
637	 0.269287526607513 
638	 0.269038200378418 
639	 0.268740117549896 
640	 0.268524020910263 
641	 0.268261015415192 
642	 0.268006831407547 
643	 0.267826914787292 
644	 0.267544835805893 
645	 0.267249166965485 
646	 0.266967862844467 
647	 0.266676872968674 
648	 0.26642170548439 
649	 0.266222238540649 
650	 0.266058385372162 
651	 0.265848129987717 
652	 0.265564978122711 
653	 0.265269160270691 
654	 0.265036702156067 
655	 0.2648706138134 
656	 0.264610826969147 
657	 0.264296650886536 
658	 0.264113545417786 
659	 0.263883888721466 
660	 0.263654232025146 
661	 0.263439476490021 
662	 0.263124793767929 
663	 0.262912482023239 
664	 0.262740731239319 
665	 0.262502998113632 
666	 0.262302547693253 
667	 0.262111008167267 
668	 0.261897206306458 
669	 0.261643767356873 
670	 0.261493235826492 
671	 0.261250555515289 
672	 0.260885030031204 
673	 0.260721832513809 
674	 0.260580390691757 
675	 0.260424882173538 
676	 0.260258138179779 
677	 0.260082364082336 
678	 0.259828448295593 
679	 0.25957790017128 
680	 0.259475022554398 
681	 0.259257167577744 
682	 0.259038358926773 
683	 0.258874118328094 
684	 0.258666187524796 
685	 0.258523315191269 
686	 0.258407711982727 
687	 0.258253037929535 
688	 0.258019268512726 
689	 0.257864624261856 
690	 0.257754951715469 
691	 0.257577329874039 
692	 0.257491558790207 
693	 0.257445901632309 
694	 0.257351219654083 
695	 0.257109642028809 
696	 0.256979435682297 
697	 0.256948113441467 
698	 0.256930977106094 
699	 0.256827980279922 
700	 0.25669938325882 
701	 0.256603300571442 
702	 0.25657594203949 
703	 0.256541728973389 
704	 0.256486237049103 
705	 0.256423890590668 
706	 0.256387144327164 
707	 0.25632518529892 
708	 0.256256431341171 
709	 0.256208389997482 
710	 0.256200909614563 
711	 0.256270557641983 
712	 0.256302088499069 
713	 0.256214648485184 
714	 0.256232917308807 
715	 0.256287306547165 
716	 0.256323963403702 
717	 0.256326228380203 
718	 0.256475359201431 
719	 0.256561934947968 
720	 0.256532728672028 
721	 0.256577104330063 
722	 0.256659388542175 
723	 0.256819069385529 
724	 0.257017880678177 
725	 0.25697985291481 
726	 0.257016092538834 
727	 0.257163792848587 
728	 0.257330566644669 
729	 0.257364839315414 
730	 0.257496774196625 
731	 0.257712215185165 
732	 0.257809162139893 
733	 0.257910013198853 
734	 0.258027940988541 
735	 0.258162975311279 
736	 0.258315414190292 
737	 0.258571028709412 
738	 0.258781224489212 
739	 0.258841872215271 
740	 0.258931577205658 
741	 0.259123921394348 
742	 0.259377002716064 
743	 0.259595811367035 
744	 0.259741991758347 
745	 0.259901434183121 
746	 0.260097533464432 
747	 0.260294705629349 
748	 0.260513812303543 
749	 0.260686367750168 
750	 0.260842114686966 
751	 0.261173635721207 
752	 0.261344015598297 
753	 0.261522859334946 
754	 0.261853456497192 
755	 0.262023657560349 
756	 0.262290567159653 
757	 0.262616962194443 
758	 0.262856662273407 
759	 0.262982398271561 
760	 0.263167828321457 
761	 0.263452470302582 
762	 0.263756841421127 
763	 0.264030069112778 
764	 0.264218032360077 
765	 0.264369279146194 
766	 0.264650344848633 
767	 0.264879524707794 
768	 0.265132397413254 
769	 0.265440732240677 
770	 0.265603512525558 
771	 0.265858978033066 
772	 0.266115754842758 
773	 0.266244441270828 
774	 0.266411364078522 
775	 0.26660880446434 
776	 0.266807347536087 
777	 0.266976416110992 
778	 0.267159104347229 
779	 0.267369389533997 
780	 0.267583638429642 
781	 0.267747104167938 
782	 0.267828792333603 
783	 0.267926245927811 
784	 0.268084645271301 
785	 0.268242210149765 
786	 0.268351674079895 
787	 0.268440663814545 
788	 0.268536567687988 
789	 0.268620550632477 
790	 0.268641471862793 
791	 0.268622994422913 
792	 0.268634974956512 
793	 0.268808454275131 
794	 0.268974334001541 
795	 0.269016534090042 
796	 0.268903195858002 
797	 0.268833339214325 
798	 0.26878434419632 
799	 0.268760204315186 
800	 0.268787771463394 
801	 0.268812328577042 
802	 0.268695116043091 
803	 0.268501281738281 
804	 0.268521130084991 
805	 0.268409073352814 
806	 0.268274456262589 
807	 0.268219590187073 
808	 0.268181055784225 
809	 0.268013179302216 
810	 0.267782717943192 
811	 0.267583906650543 
812	 0.267415016889572 
813	 0.267244011163712 
814	 0.267062097787857 
815	 0.266880691051483 
816	 0.266755998134613 
817	 0.266579955816269 
818	 0.266344547271729 
819	 0.266098737716675 
820	 0.265876710414886 
821	 0.265652477741241 
822	 0.265429645776749 
823	 0.265226423740387 
824	 0.26499530673027 
825	 0.264751702547073 
826	 0.264514923095703 
827	 0.264292240142822 
828	 0.263990193605423 
829	 0.263698846101761 
830	 0.263460904359818 
831	 0.263225138187408 
832	 0.262939006090164 
833	 0.262682288885117 
834	 0.262456208467484 
835	 0.262103468179703 
836	 0.261771082878113 
837	 0.261446326971054 
838	 0.261142015457153 
839	 0.261001497507095 
840	 0.260768055915833 
841	 0.260465949773788 
842	 0.260171681642532 
843	 0.259868890047073 
844	 0.259522795677185 
845	 0.259183019399643 
846	 0.258900940418243 
847	 0.258632212877274 
848	 0.258390814065933 
849	 0.258155941963196 
850	 0.257897078990936 
851	 0.257612764835358 
852	 0.257230460643768 
853	 0.256837218999863 
854	 0.256570518016815 
855	 0.256415069103241 
856	 0.256218999624252 
857	 0.255977421998978 
858	 0.25574055314064 
859	 0.255299001932144 
860	 0.255016773939133 
861	 0.254881501197815 
862	 0.254642128944397 
863	 0.254414051771164 
864	 0.254100441932678 
865	 0.253759354352951 
866	 0.253539353609085 
867	 0.25330913066864 
868	 0.253124207258224 
869	 0.252957791090012 
870	 0.252723157405853 
871	 0.252507984638214 
872	 0.252301841974258 
873	 0.25209054350853 
874	 0.251871734857559 
875	 0.251698076725006 
876	 0.251451909542084 
877	 0.251171767711639 
878	 0.251031190156937 
879	 0.250913798809052 
880	 0.250739246606827 
881	 0.2505122423172 
882	 0.250315487384796 
883	 0.250186532735825 
884	 0.250042319297791 
885	 0.249882206320763 
886	 0.249783784151077 
887	 0.249610543251038 
888	 0.249446213245392 
889	 0.249306976795197 
890	 0.249135851860046 
891	 0.249108776450157 
892	 0.248985692858696 
893	 0.248788475990295 
894	 0.248791113495827 
895	 0.2487832903862 
896	 0.248724833130836 
897	 0.248610123991966 
898	 0.24845826625824 
899	 0.248320341110229 
900	 0.248312145471573 
901	 0.248353838920593 
902	 0.248243317008018 
903	 0.248158872127533 
904	 0.248124167323112 
905	 0.24810990691185 
906	 0.24806259572506 
907	 0.247984677553177 
908	 0.2478928565979 
909	 0.247833326458931 
910	 0.24785253405571 
911	 0.247909903526306 
912	 0.247954741120338 
913	 0.247906759381294 
914	 0.247762516140938 
915	 0.247932091355324 
916	 0.248040363192558 
917	 0.248031780123711 
918	 0.248028591275215 
919	 0.24802902340889 
920	 0.247976034879684 
921	 0.247982412576675 
922	 0.248142823576927 
923	 0.248243048787117 
924	 0.248264983296394 
925	 0.248278066515923 
926	 0.24834156036377 
927	 0.248377591371536 
928	 0.248498469591141 
929	 0.248613893985748 
930	 0.248635247349739 
931	 0.248613685369492 
932	 0.248657763004303 
933	 0.248762890696526 
934	 0.248887434601784 
935	 0.248995259404182 
936	 0.24923974275589 
937	 0.249366521835327 
938	 0.249307066202164 
939	 0.249310553073883 
940	 0.249416545033455 
941	 0.249509826302528 
942	 0.249595910310745 
943	 0.249771416187286 
944	 0.249793231487274 
945	 0.249782338738441 
946	 0.249844133853912 
947	 0.250004529953003 
948	 0.25012543797493 
949	 0.250181376934052 
950	 0.250253289937973 
951	 0.250406473875046 
952	 0.250470221042633 
953	 0.250666201114655 
954	 0.250831574201584 
955	 0.25086122751236 
956	 0.251073867082596 
957	 0.25125378370285 
958	 0.251351237297058 
959	 0.251436740159988 
960	 0.251667410135269 
961	 0.251885980367661 
962	 0.252029925584793 
963	 0.252130031585693 
964	 0.252283155918121 
965	 0.252498358488083 
966	 0.252706974744797 
967	 0.252845138311386 
968	 0.25290310382843 
969	 0.253020375967026 
970	 0.253204882144928 
971	 0.253359645605087 
972	 0.253429412841797 
973	 0.253569960594177 
974	 0.253769010305405 
975	 0.253940612077713 
976	 0.254025787115097 
977	 0.254069656133652 
978	 0.254445046186447 
979	 0.254815101623535 
980	 0.254979401826859 
981	 0.255026191473007 
982	 0.255181968212128 
983	 0.255313605070114 
984	 0.25542026758194 
985	 0.255570858716965 
986	 0.255761325359344 
987	 0.255897402763367 
988	 0.256061136722565 
989	 0.256305575370789 
990	 0.25652888417244 
991	 0.256782919168472 
992	 0.256972938776016 
993	 0.257158845663071 
994	 0.25750720500946 
995	 0.257731586694717 
996	 0.257949680089951 
997	 0.258218288421631 
998	 0.258507758378983 
999	 0.258691757917404 
1000	 0.259001612663269 
1001	 0.249380618333817 
1002	 0.249616503715515 
1003	 0.249835774302483 
1004	 0.250049620866776 
1005	 0.250295728445053 
1006	 0.250543177127838 
1007	 0.250719130039215 
1008	 0.250974923372269 
1009	 0.251256555318832 
1010	 0.251570194959641 
1011	 0.251833766698837 
1012	 0.252129077911377 
1013	 0.252391695976257 
1014	 0.252606689929962 
1015	 0.252849906682968 
1016	 0.253112763166428 
1017	 0.253368198871613 
1018	 0.253643333911896 
1019	 0.253826200962067 
1020	 0.254034787416458 
1021	 0.254289567470551 
1022	 0.254417061805725 
1023	 0.254592001438141 
1024	 0.25481191277504 
1025	 0.255028158426285 
1026	 0.255255222320557 
1027	 0.255617707967758 
1028	 0.255831152200699 
1029	 0.255941420793533 
1030	 0.256095975637436 
1031	 0.25627937912941 
1032	 0.256416469812393 
1033	 0.256610512733459 
1034	 0.25679948925972 
1035	 0.256959915161133 
1036	 0.257151663303375 
1037	 0.257333219051361 
1038	 0.257499128580093 
1039	 0.257670700550079 
1040	 0.257795512676239 
1041	 0.257945120334625 
1042	 0.258174300193787 
1043	 0.258327037096024 
1044	 0.2584108710289 
1045	 0.258588165044785 
1046	 0.258728891611099 
1047	 0.258729994297028 
1048	 0.258755773305893 
1049	 0.258771926164627 
1050	 0.258892506361008 
1051	 0.259007930755615 
1052	 0.259141802787781 
1053	 0.259302467107773 
1054	 0.259399473667145 
1055	 0.259405076503754 
1056	 0.259467601776123 
1057	 0.25953871011734 
1058	 0.259607017040253 
1059	 0.259702056646347 
1060	 0.259725093841553 
1061	 0.259809017181396 
1062	 0.259945899248123 
1063	 0.259988933801651 
1064	 0.260079443454742 
1065	 0.260165303945541 
1066	 0.260176360607147 
1067	 0.260292321443558 
1068	 0.260507225990295 
1069	 0.260636985301971 
1070	 0.260769903659821 
1071	 0.260865390300751 
1072	 0.260920882225037 
1073	 0.260918736457825 
1074	 0.260963916778564 
1075	 0.261093288660049 
1076	 0.261217206716537 
1077	 0.261314511299133 
1078	 0.261445879936218 
1079	 0.26159730553627 
1080	 0.26173323392868 
1081	 0.261853694915771 
1082	 0.261959373950958 
1083	 0.262048989534378 
1084	 0.262123644351959 
1085	 0.262220025062561 
1086	 0.262339323759079 
1087	 0.262472540140152 
1088	 0.262613832950592 
1089	 0.262800276279449 
1090	 0.262989670038223 
1091	 0.263123571872711 
1092	 0.263273894786835 
1093	 0.263415336608887 
1094	 0.263511270284653 
1095	 0.263693273067474 
1096	 0.263875722885132 
1097	 0.264014720916748 
1098	 0.264188379049301 
1099	 0.264325022697449 
1100	 0.264464229345322 
1101	 0.264620691537857 
1102	 0.264790236949921 
1103	 0.26495024561882 
1104	 0.265121668577194 
1105	 0.265275776386261 
1106	 0.265402048826218 
1107	 0.265570610761642 
1108	 0.265750557184219 
1109	 0.265880107879639 
1110	 0.26608669757843 
1111	 0.266289710998535 
1112	 0.26639661192894 
1113	 0.266606241464615 
1114	 0.266827523708344 
1115	 0.267003238201141 
1116	 0.267251819372177 
1117	 0.267453610897064 
1118	 0.267632156610489 
1119	 0.267787158489227 
1120	 0.267963290214539 
1121	 0.268112242221832 
1122	 0.268304944038391 
1123	 0.268471717834473 
1124	 0.268648892641068 
1125	 0.268842965364456 
1126	 0.268980771303177 
1127	 0.269185423851013 
1128	 0.269380629062653 
1129	 0.269520670175552 
1130	 0.269725024700165 
1131	 0.269955396652222 
1132	 0.270149618387222 
1133	 0.270325303077698 
1134	 0.270502030849457 
1135	 0.270680636167526 
1136	 0.27082222700119 
1137	 0.270953387022018 
1138	 0.271077036857605 
1139	 0.271230936050415 
1140	 0.271436303853989 
1141	 0.271640688180923 
1142	 0.27189439535141 
1143	 0.272172659635544 
1144	 0.272369176149368 
1145	 0.272547602653503 
1146	 0.272768348455429 
1147	 0.272938221693039 
1148	 0.273117423057556 
1149	 0.273360013961792 
1150	 0.273660689592361 
1151	 0.273910373449326 
1152	 0.274186730384827 
1153	 0.274466037750244 
1154	 0.27464085817337 
1155	 0.274845033884048 
1156	 0.275089383125305 
1157	 0.275312066078186 
1158	 0.275586664676666 
1159	 0.275903671979904 
1160	 0.276216596364975 
1161	 0.276540160179138 
1162	 0.276902556419373 
1163	 0.277237683534622 
1164	 0.277572929859161 
1165	 0.277945995330811 
1166	 0.278300553560257 
1167	 0.27866131067276 
1168	 0.278997749090195 
1169	 0.279310256242752 
1170	 0.279638856649399 
1171	 0.2800113260746 
1172	 0.280368238687515 
1173	 0.280753672122955 
1174	 0.28114640712738 
1175	 0.281505763530731 
1176	 0.281836479902267 
1177	 0.282171130180359 
1178	 0.282529175281525 
1179	 0.282851606607437 
1180	 0.283183544874191 
1181	 0.283605724573135 
1182	 0.284039527177811 
1183	 0.284416496753693 
1184	 0.284779340028763 
1185	 0.285149127244949 
1186	 0.285444259643555 
1187	 0.285819709300995 
1188	 0.286233246326447 
1189	 0.28670671582222 
1190	 0.287176549434662 
1191	 0.287588894367218 
1192	 0.287957727909088 
1193	 0.288328945636749 
1194	 0.288691788911819 
1195	 0.289035201072693 
1196	 0.289404541254044 
1197	 0.289811789989471 
1198	 0.290224850177765 
1199	 0.290636003017426 
1200	 0.291054368019104 
1201	 0.291474670171738 
1202	 0.291892975568771 
1203	 0.292309790849686 
1204	 0.292716443538666 
1205	 0.293113499879837 
1206	 0.293514847755432 
1207	 0.293892174959183 
1208	 0.294317662715912 
1209	 0.294745713472366 
1210	 0.295171707868576 
1211	 0.295608818531036 
1212	 0.296010255813599 
1213	 0.296397268772125 
1214	 0.296822130680084 
1215	 0.297226220369339 
1216	 0.29763400554657 
1217	 0.298085451126099 
1218	 0.298469007015228 
1219	 0.298885226249695 
1220	 0.299318671226501 
1221	 0.299759417772293 
1222	 0.300219416618347 
1223	 0.300667524337769 
1224	 0.301114976406097 
1225	 0.301537066698074 
1226	 0.301936954259872 
1227	 0.302341878414154 
1228	 0.302742272615433 
1229	 0.303165137767792 
1230	 0.303580790758133 
1231	 0.30404981970787 
1232	 0.304537177085876 
1233	 0.304974615573883 
1234	 0.305439203977585 
1235	 0.305892318487167 
1236	 0.306353181600571 
1237	 0.306844502687454 
1238	 0.307301074266434 
1239	 0.307757079601288 
1240	 0.308212250471115 
1241	 0.308635264635086 
1242	 0.309069156646729 
1243	 0.309518933296204 
1244	 0.30995836853981 
1245	 0.310393124818802 
1246	 0.310818284749985 
1247	 0.31124147772789 
1248	 0.31166011095047 
1249	 0.312067151069641 
1250	 0.312512367963791 
1251	 0.313054800033569 
1252	 0.313587605953217 
1253	 0.314016610383987 
1254	 0.314447730779648 
1255	 0.314863502979279 
1256	 0.315228670835495 
1257	 0.315686583518982 
1258	 0.316164016723633 
1259	 0.316622138023376 
1260	 0.317081123590469 
1261	 0.31753733754158 
1262	 0.317995756864548 
1263	 0.318430483341217 
1264	 0.318835973739624 
1265	 0.319251418113709 
1266	 0.319652765989304 
1267	 0.320074439048767 
1268	 0.320517927408218 
1269	 0.320954620838165 
1270	 0.321393877267838 
1271	 0.321834534406662 
1272	 0.322249233722687 
1273	 0.322652697563171 
1274	 0.32309228181839 
1275	 0.323561638593674 
1276	 0.324050068855286 
1277	 0.324529260396957 
1278	 0.324982851743698 
1279	 0.325404137372971 
1280	 0.325851559638977 
1281	 0.326315850019455 
1282	 0.326767295598984 
1283	 0.327222794294357 
1284	 0.327672153711319 
1285	 0.328134655952454 
1286	 0.328544586896896 
1287	 0.32891833782196 
1288	 0.329300820827484 
1289	 0.329635262489319 
1290	 0.330010533332825 
1291	 0.330419808626175 
1292	 0.330821365118027 
1293	 0.331214368343353 
1294	 0.33159214258194 
1295	 0.331971496343613 
1296	 0.332384318113327 
1297	 0.332777053117752 
1298	 0.333168476819992 
1299	 0.333528995513916 
1300	 0.333881109952927 
1301	 0.334277868270874 
1302	 0.334671467542648 
1303	 0.335106492042542 
1304	 0.335596561431885 
1305	 0.336053937673569 
1306	 0.336525440216064 
1307	 0.336990505456924 
1308	 0.337403684854507 
1309	 0.337900876998901 
1310	 0.338449686765671 
1311	 0.338991105556488 
1312	 0.339585065841675 
1313	 0.340159475803375 
1314	 0.340724170207977 
1315	 0.341289162635803 
1316	 0.341853320598602 
1317	 0.342411905527115 
1318	 0.343003958463669 
1319	 0.343574017286301 
1320	 0.34414079785347 
1321	 0.344706058502197 
1322	 0.345237046480179 
1323	 0.345752626657486 
1324	 0.346240907907486 
1325	 0.346731036901474 
1326	 0.347244501113892 
1327	 0.347737848758698 
1328	 0.348252832889557 
1329	 0.348817586898804 
1330	 0.349352240562439 
1331	 0.349879145622253 
1332	 0.350394576787949 
1333	 0.350889474153519 
1334	 0.351377189159393 
1335	 0.35185581445694 
1336	 0.352329254150391 
1337	 0.35279580950737 
1338	 0.353266179561615 
1339	 0.35372605919838 
1340	 0.354171961545944 
1341	 0.354615688323975 
1342	 0.355060428380966 
1343	 0.355455338954926 
1344	 0.35584968328476 
1345	 0.356245040893555 
1346	 0.356638640165329 
1347	 0.357049345970154 
1348	 0.357451289892197 
1349	 0.357783585786819 
1350	 0.358106732368469 
1351	 0.358457028865814 
1352	 0.358812004327774 
1353	 0.359126061201096 
1354	 0.35945200920105 
1355	 0.359753429889679 
1356	 0.359989762306213 
1357	 0.360268801450729 
1358	 0.360570818185806 
1359	 0.360871315002441 
1360	 0.361163407564163 
1361	 0.361479431390762 
1362	 0.36186671257019 
1363	 0.362150430679321 
1364	 0.362385451793671 
1365	 0.362620204687119 
1366	 0.362820267677307 
1367	 0.362981498241425 
1368	 0.363133579492569 
1369	 0.363270103931427 
1370	 0.363354206085205 
1371	 0.363349556922913 
1372	 0.363358944654465 
1373	 0.363326102495193 
1374	 0.363197803497314 
1375	 0.363008379936218 
1376	 0.362744987010956 
1377	 0.362321138381958 
1378	 0.361748605966568 
1379	 0.360959857702255 
1380	 0.359623193740845 
1381	 0.358049184083939 
1382	 0.355755865573883 
1383	 0.3529352247715 
1384	 0.349585920572281 
1385	 0.345490664243698 
1386	 0.341450691223145 
1387	 0.336700648069382 
1388	 0.332616776227951 
1389	 0.3282271027565 
1390	 0.324876189231873 
1391	 0.321832895278931 
1392	 0.31973272562027 
1393	 0.318472474813461 
1394	 0.317756831645966 
1395	 0.317951083183289 
1396	 0.318309277296066 
1397	 0.319387316703796 
1398	 0.320372611284256 
1399	 0.32162219285965 
1400	 0.322892665863037 
1401	 0.324090778827667 
1402	 0.325161963701248 
1403	 0.326040297746658 
1404	 0.326804965734482 
1405	 0.327424913644791 
1406	 0.327960669994354 
1407	 0.328403323888779 
1408	 0.328814625740051 
1409	 0.32914799451828 
1410	 0.329421043395996 
1411	 0.329755157232285 
1412	 0.330034762620926 
1413	 0.33046743273735 
1414	 0.330903738737106 
1415	 0.331573486328125 
1416	 0.33233642578125 
1417	 0.333342611789703 
1418	 0.334598362445831 
1419	 0.335909634828568 
1420	 0.337455123662949 
1421	 0.338932693004608 
1422	 0.340538859367371 
1423	 0.342009484767914 
1424	 0.343508690595627 
1425	 0.344855934381485 
1426	 0.346153080463409 
1427	 0.347255170345306 
1428	 0.348174899816513 
1429	 0.349051803350449 
1430	 0.349771052598953 
1431	 0.35045862197876 
1432	 0.351088851690292 
1433	 0.351677268743515 
1434	 0.352187633514404 
1435	 0.352650374174118 
1436	 0.35311496257782 
1437	 0.353609770536423 
1438	 0.354095995426178 
1439	 0.354556620121002 
1440	 0.355041086673737 
1441	 0.355548143386841 
1442	 0.356056660413742 
1443	 0.356586575508118 
1444	 0.357154130935669 
1445	 0.357738822698593 
1446	 0.358360886573792 
1447	 0.359034806489944 
1448	 0.35969552397728 
1449	 0.360385805368423 
1450	 0.361048638820648 
1451	 0.361707210540771 
1452	 0.362369298934937 
1453	 0.363027930259705 
1454	 0.363669008016586 
1455	 0.364309459924698 
1456	 0.364941537380219 
1457	 0.36555415391922 
1458	 0.366172730922699 
1459	 0.366793066263199 
1460	 0.367405712604523 
1461	 0.368000358343124 
1462	 0.368621438741684 
1463	 0.369251370429993 
1464	 0.369885921478271 
1465	 0.370528608560562 
1466	 0.371185511350632 
1467	 0.371870696544647 
1468	 0.372528582811356 
1469	 0.373187392950058 
1470	 0.373842060565948 
1471	 0.374459058046341 
1472	 0.375103265047073 
1473	 0.375786572694778 
1474	 0.376437991857529 
1475	 0.377091348171234 
1476	 0.377709835767746 
1477	 0.378336578607559 
1478	 0.378963381052017 
1479	 0.379573941230774 
1480	 0.380225569009781 
1481	 0.380862146615982 
1482	 0.381466656923294 
1483	 0.382108509540558 
1484	 0.382718235254288 
1485	 0.383260995149612 
1486	 0.383800685405731 
1487	 0.384283751249313 
1488	 0.384755671024323 
1489	 0.385263562202454 
1490	 0.3857461810112 
1491	 0.386263519525528 
1492	 0.386774778366089 
1493	 0.387230217456818 
1494	 0.387658774852753 
1495	 0.388085305690765 
1496	 0.388449817895889 
1497	 0.388860642910004 
1498	 0.389319151639938 
1499	 0.38970959186554 
1500	 0.39006495475769 
1501	 0.390445977449417 
1502	 0.390817224979401 
1503	 0.391159534454346 
1504	 0.391507804393768 
1505	 0.391844511032104 
1506	 0.392133891582489 
1507	 0.392444521188736 
1508	 0.392794728279114 
1509	 0.39308699965477 
1510	 0.393318474292755 
1511	 0.393605202436447 
1512	 0.393889665603638 
1513	 0.394189924001694 
1514	 0.394535481929779 
1515	 0.394856750965118 
1516	 0.395148068666458 
1517	 0.395477265119553 
1518	 0.395849317312241 
1519	 0.396175265312195 
1520	 0.396502286195755 
1521	 0.396817445755005 
1522	 0.397080183029175 
1523	 0.397377729415894 
1524	 0.397698551416397 
1525	 0.398008704185486 
1526	 0.39830008149147 
1527	 0.398629277944565 
1528	 0.398986846208572 
1529	 0.399336814880371 
1530	 0.399697005748749 
1531	 0.400088548660278 
1532	 0.400452345609665 
1533	 0.400772035121918 
1534	 0.401105433702469 
1535	 0.401435196399689 
1536	 0.401763945817947 
1537	 0.402121663093567 
1538	 0.402473121881485 
1539	 0.402812778949738 
1540	 0.403153270483017 
1541	 0.403526246547699 
1542	 0.403939694166183 
1543	 0.404333353042603 
1544	 0.404728084802628 
1545	 0.405136346817017 
1546	 0.405522614717484 
1547	 0.405951231718063 
1548	 0.406446039676666 
1549	 0.406897634267807 
1550	 0.407301753759384 
1551	 0.407717347145081 
1552	 0.408098727464676 
1553	 0.408484071493149 
1554	 0.408935785293579 
1555	 0.409386903047562 
1556	 0.409825652837753 
1557	 0.410303741693497 
1558	 0.410776048898697 
1559	 0.41122230887413 
1560	 0.411684453487396 
1561	 0.41213521361351 
1562	 0.412591308355331 
1563	 0.413086086511612 
1564	 0.413569688796997 
1565	 0.414055198431015 
1566	 0.414563447237015 
1567	 0.415084213018417 
1568	 0.415597259998322 
1569	 0.416140824556351 
1570	 0.416623026132584 
1571	 0.417050153017044 
1572	 0.417535245418549 
1573	 0.418025940656662 
1574	 0.418528348207474 
1575	 0.419067531824112 
1576	 0.419580847024918 
1577	 0.420077443122864 
1578	 0.420570254325867 
1579	 0.421063631772995 
1580	 0.421564042568207 
1581	 0.422027230262756 
1582	 0.422565072774887 
1583	 0.423169016838074 
1584	 0.423719048500061 
1585	 0.424294888973236 
1586	 0.424839228391647 
1587	 0.425316125154495 
1588	 0.425849735736847 
1589	 0.426428109407425 
1590	 0.426965832710266 
1591	 0.427503645420074 
1592	 0.428027093410492 
1593	 0.428506433963776 
1594	 0.42902997136116 
1595	 0.429574728012085 
1596	 0.430115252733231 
1597	 0.43068128824234 
1598	 0.43121924996376 
1599	 0.431723833084106 
1600	 0.432265400886536 
1601	 0.432836800813675 
1602	 0.433369666337967 
1603	 0.433888405561447 
1604	 0.434429168701172 
1605	 0.434945791959763 
1606	 0.435483813285828 
1607	 0.436094522476196 
1608	 0.436626315116882 
1609	 0.437113434076309 
1610	 0.4376021027565 
1611	 0.438031554222107 
1612	 0.438519954681396 
1613	 0.439042925834656 
1614	 0.439534723758698 
1615	 0.440022468566895 
1616	 0.440541476011276 
1617	 0.441074192523956 
1618	 0.441594183444977 
1619	 0.442132741212845 
1620	 0.442663043737412 
1621	 0.443161219358444 
1622	 0.443673074245453 
1623	 0.444230228662491 
1624	 0.444733589887619 
1625	 0.445199400186539 
1626	 0.445669770240784 
1627	 0.446121573448181 
1628	 0.446591883897781 
1629	 0.447056889533997 
1630	 0.447521895170212 
1631	 0.447993457317352 
1632	 0.448454886674881 
1633	 0.448929399251938 
1634	 0.44938051700592 
1635	 0.449811667203903 
1636	 0.450254052877426 
1637	 0.450685292482376 
1638	 0.45110547542572 
1639	 0.4515261054039 
1640	 0.451954692602158 
1641	 0.452367395162582 
1642	 0.452792555093765 
1643	 0.453234314918518 
1644	 0.453677237033844 
1645	 0.454115360975266 
1646	 0.454568237066269 
1647	 0.45506227016449 
1648	 0.455494403839111 
1649	 0.455886572599411 
1650	 0.456285685300827 
1651	 0.456641495227814 
1652	 0.457081437110901 
1653	 0.457585453987122 
1654	 0.458043456077576 
1655	 0.458527028560638 
1656	 0.458939552307129 
1657	 0.459287881851196 
1658	 0.459674417972565 
1659	 0.460053265094757 
1660	 0.460446834564209 
1661	 0.460853397846222 
1662	 0.461235105991364 
1663	 0.46162748336792 
1664	 0.461999267339706 
1665	 0.462337642908096 
1666	 0.462700217962265 
1667	 0.463042438030243 
1668	 0.463424742221832 
1669	 0.463844567537308 
1670	 0.46427708864212 
1671	 0.464709460735321 
1672	 0.465116500854492 
1673	 0.465530604124069 
1674	 0.465881288051605 
1675	 0.46615919470787 
1676	 0.466486930847168 
1677	 0.466833502054214 
1678	 0.467161267995834 
1679	 0.46754178404808 
1680	 0.467854112386703 
1681	 0.468074530363083 
1682	 0.468386590480804 
1683	 0.468759536743164 
1684	 0.469151258468628 
1685	 0.4695705473423 
1686	 0.469970613718033 
1687	 0.470331072807312 
1688	 0.470652729272842 
1689	 0.471006542444229 
1690	 0.471363037824631 
1691	 0.471645265817642 
1692	 0.471961140632629 
1693	 0.472300231456757 
1694	 0.472587645053864 
1695	 0.472918272018433 
1696	 0.473274677991867 
1697	 0.473642498254776 
1698	 0.474045485258102 
1699	 0.474411457777023 
1700	 0.474746882915497 
1701	 0.475072860717773 
1702	 0.475392729043961 
1703	 0.475723683834076 
1704	 0.476057350635529 
1705	 0.476338595151901 
1706	 0.476546049118042 
1707	 0.47679990530014 
1708	 0.477089673280716 
1709	 0.47738990187645 
1710	 0.477738171815872 
1711	 0.47799214720726 
1712	 0.478218615055084 
1713	 0.478492796421051 
1714	 0.478722721338272 
1715	 0.479036748409271 
1716	 0.479398608207703 
1717	 0.47963684797287 
1718	 0.479865789413452 
1719	 0.480103224515915 
1720	 0.480263471603394 
1721	 0.48044764995575 
1722	 0.480661332607269 
1723	 0.48089388012886 
1724	 0.481185168027878 
1725	 0.48145192861557 
1726	 0.481620371341705 
1727	 0.481803745031357 
1728	 0.4819375872612 
1729	 0.482098013162613 
1730	 0.482333421707153 
1731	 0.482493489980698 
1732	 0.482550710439682 
1733	 0.482680410146713 
1734	 0.482828497886658 
1735	 0.482969582080841 
1736	 0.483158081769943 
1737	 0.483314692974091 
1738	 0.483417242765427 
1739	 0.48353773355484 
1740	 0.48367103934288 
1741	 0.483736932277679 
1742	 0.483816832304001 
1743	 0.483925640583038 
1744	 0.484037607908249 
1745	 0.484171777963638 
1746	 0.484270751476288 
1747	 0.484388768672943 
1748	 0.484513431787491 
1749	 0.484595090150833 
1750	 0.484711885452271 
1751	 0.48485067486763 
1752	 0.48492494225502 
1753	 0.48496800661087 
1754	 0.485025852918625 
1755	 0.485042899847031 
1756	 0.485079497098923 
1757	 0.48515573143959 
1758	 0.485230177640915 
1759	 0.48527917265892 
1760	 0.485286742448807 
1761	 0.48535943031311 
1762	 0.485439479351044 
1763	 0.485483109951019 
1764	 0.485552370548248 
1765	 0.485577315092087 
1766	 0.485605239868164 
1767	 0.485675722360611 
1768	 0.485726892948151 
1769	 0.485762596130371 
1770	 0.48579877614975 
1771	 0.48585632443428 
1772	 0.485921770334244 
1773	 0.485992312431335 
1774	 0.486026108264923 
1775	 0.48597463965416 
1776	 0.485943526029587 
1777	 0.485931158065796 
1778	 0.485901862382889 
1779	 0.485918432474136 
1780	 0.485887825489044 
1781	 0.485853165388107 
1782	 0.485905081033707 
1783	 0.485970020294189 
1784	 0.486053884029388 
1785	 0.486139923334122 
1786	 0.486155480146408 
1787	 0.486142963171005 
1788	 0.486080855131149 
1789	 0.485977232456207 
1790	 0.485891699790955 
1791	 0.485810935497284 
1792	 0.485712736845016 
1793	 0.485642790794373 
1794	 0.485608994960785 
1795	 0.48559433221817 
1796	 0.485638320446014 
1797	 0.485688447952271 
1798	 0.485746711492538 
1799	 0.485792994499207 
1800	 0.485758483409882 
1801	 0.485717087984085 
1802	 0.485649704933167 
1803	 0.485529899597168 
1804	 0.485444217920303 
1805	 0.485383242368698 
1806	 0.485296756029129 
1807	 0.485229879617691 
1808	 0.485183209180832 
1809	 0.485100865364075 
1810	 0.485004901885986 
1811	 0.484871298074722 
1812	 0.484753727912903 
1813	 0.484628528356552 
1814	 0.484543800354004 
1815	 0.484448343515396 
1816	 0.484366595745087 
1817	 0.484273701906204 
1818	 0.484163194894791 
1819	 0.484082132577896 
1820	 0.484045028686523 
1821	 0.483998388051987 
1822	 0.483927428722382 
1823	 0.483862280845642 
1824	 0.483742505311966 
1825	 0.483586251735687 
1826	 0.483447968959808 
1827	 0.483294069766998 
1828	 0.483117610216141 
1829	 0.482926517724991 
1830	 0.482678055763245 
1831	 0.497250080108643 
1832	 0.496998935937881 
1833	 0.496695071458817 
1834	 0.496260464191437 
1835	 0.49589866399765 
1836	 0.495519459247589 
1837	 0.495174467563629 
1838	 0.494910806417465 
1839	 0.49456250667572 
1840	 0.494044244289398 
1841	 0.493523418903351 
1842	 0.492962777614594 
1843	 0.492326706647873 
1844	 0.491719752550125 
1845	 0.491227686405182 
1846	 0.490557640790939 
1847	 0.4897500872612 
1848	 0.489010751247406 
1849	 0.488256365060806 
1850	 0.487407386302948 
1851	 0.486597090959549 
1852	 0.48579403758049 
1853	 0.484886437654495 
1854	 0.484000205993652 
1855	 0.483170479536057 
1856	 0.482436418533325 
1857	 0.481571048498154 
1858	 0.480710417032242 
1859	 0.479783892631531 
1860	 0.478762269020081 
1861	 0.477675527334213 
1862	 0.476542413234711 
1863	 0.475428938865662 
1864	 0.474265486001968 
1865	 0.472992658615112 
1866	 0.471666842699051 
1867	 0.470233052968979 
1868	 0.46882626414299 
1869	 0.467498153448105 
1870	 0.466072529554367 
1871	 0.464554607868195 
1872	 0.462898105382919 
1873	 0.460998952388763 
1874	 0.459040731191635 
1875	 0.457016140222549 
1876	 0.454951047897339 
1877	 0.452850580215454 
1878	 0.450736254453659 
1879	 0.448460966348648 
1880	 0.446093916893005 
1881	 0.443706005811691 
1882	 0.441265404224396 
1883	 0.438729137182236 
1884	 0.436084389686584 
1885	 0.433346539735794 
1886	 0.430467665195465 
1887	 0.427516251802444 
1888	 0.42444321513176 
1889	 0.421321600675583 
1890	 0.418008923530579 
1891	 0.414565563201904 
1892	 0.411020666360855 
1893	 0.407425493001938 
1894	 0.403904139995575 
1895	 0.400285363197327 
1896	 0.396642953157425 
1897	 0.393015295267105 
1898	 0.389401644468308 
1899	 0.385997772216797 
1900	 0.382710844278336 
1901	 0.37960958480835 
1902	 0.376736968755722 
1903	 0.374032288789749 
1904	 0.371528536081314 
1905	 0.369255840778351 
1906	 0.367172569036484 
1907	 0.365416914224625 
1908	 0.364024847745895 
1909	 0.362797856330872 
1910	 0.361773878335953 
1911	 0.360990047454834 
1912	 0.36043506860733 
1913	 0.359994888305664 
1914	 0.359787344932556 
1915	 0.359824359416962 
1916	 0.359899669885635 
1917	 0.360035866498947 
1918	 0.36024534702301 
1919	 0.360418677330017 
1920	 0.360624760389328 
1921	 0.360932976007462 
1922	 0.361224263906479 
1923	 0.361529648303986 
1924	 0.361841559410095 
1925	 0.362216413021088 
1926	 0.362506479024887 
1927	 0.362762153148651 
1928	 0.363036543130875 
1929	 0.363290846347809 
1930	 0.363550513982773 
1931	 0.363884747028351 
1932	 0.364219546318054 
1933	 0.364476054906845 
1934	 0.364684045314789 
1935	 0.364899307489395 
1936	 0.365059673786163 
1937	 0.365173727273941 
1938	 0.365319460630417 
1939	 0.365445673465729 
1940	 0.365554928779602 
1941	 0.365683734416962 
1942	 0.365805894136429 
1943	 0.365925699472427 
1944	 0.366086721420288 
1945	 0.366294026374817 
1946	 0.366440176963806 
1947	 0.366599798202515 
1948	 0.36675888299942 
1949	 0.36675637960434 
1950	 0.366773307323456 
1951	 0.36692875623703 
1952	 0.367026686668396 
1953	 0.367236256599426 
1954	 0.367604494094849 
1955	 0.367799490690231 
1956	 0.367933511734009 
1957	 0.368139058351517 
1958	 0.368317633867264 
1959	 0.368508875370026 
1960	 0.368717461824417 
1961	 0.369045346975327 
1962	 0.369286417961121 
1963	 0.369488596916199 
1964	 0.369764387607574 
1965	 0.370068043470383 
1966	 0.370362281799316 
1967	 0.370673537254334 
1968	 0.370881110429764 
1969	 0.370941609144211 
1970	 0.37110760807991 
1971	 0.371276080608368 
1972	 0.371428996324539 
1973	 0.371600538492203 
1974	 0.371833652257919 
1975	 0.371998727321625 
1976	 0.372153371572495 
1977	 0.372305572032928 
1978	 0.372500211000443 
1979	 0.372666776180267 
1980	 0.372817844152451 
1981	 0.37303239107132 
1982	 0.373277455568314 
1983	 0.373541712760925 
1984	 0.37382373213768 
1985	 0.374178767204285 
1986	 0.374579250812531 
1987	 0.375066757202148 
1988	 0.375487864017487 
1989	 0.37587782740593 
1990	 0.37628236413002 
1991	 0.376686275005341 
1992	 0.377154529094696 
1993	 0.377696007490158 
1994	 0.378254503011703 
1995	 0.37881538271904 
1996	 0.379413366317749 
1997	 0.380104660987854 
1998	 0.380752116441727 
1999	 0.381359726190567 
2000	 0.382048457860947 
2001	 0.382765799760818 
2002	 0.383479177951813 
2003	 0.384305387735367 
2004	 0.385164082050323 
2005	 0.386038482189178 
2006	 0.386922299861908 
2007	 0.387797653675079 
2008	 0.388598144054413 
2009	 0.389576971530914 
2010	 0.390641570091248 
2011	 0.391705244779587 
2012	 0.392865508794785 
2013	 0.39408078789711 
2014	 0.395142763853073 
2015	 0.396273881196976 
2016	 0.397487610578537 
2017	 0.398640960454941 
2018	 0.399919956922531 
2019	 0.401271134614944 
2020	 0.402548670768738 
2021	 0.403822720050812 
2022	 0.40511217713356 
2023	 0.406365752220154 
2024	 0.407623559236526 
2025	 0.408890902996063 
2026	 0.410219043493271 
2027	 0.411619991064072 
2028	 0.412886321544647 
2029	 0.41417133808136 
2030	 0.415501236915588 
2031	 0.416734874248505 
2032	 0.41805100440979 
2033	 0.419525265693665 
2034	 0.420926839113235 
2035	 0.422204971313477 
2036	 0.423376351594925 
2037	 0.424613416194916 
2038	 0.425792276859283 
2039	 0.426917672157288 
2040	 0.428079575300217 
2041	 0.429182469844818 
2042	 0.430137932300568 
2043	 0.431185156106949 
2044	 0.432272464036942 
2045	 0.433269798755646 
2046	 0.434345752000809 
2047	 0.435317575931549 
2048	 0.43627205491066 
2049	 0.437231868505478 
2050	 0.438167065382004 
2051	 0.439017683267593 
2052	 0.439902007579803 
2053	 0.440801352262497 
2054	 0.44166511297226 
2055	 0.442525565624237 
2056	 0.443355917930603 
2057	 0.444172829389572 
2058	 0.444965034723282 
2059	 0.445671409368515 
2060	 0.446350276470184 
2061	 0.447018086910248 
2062	 0.447658628225327 
2063	 0.448344737291336 
2064	 0.449005335569382 
2065	 0.449608832597733 
2066	 0.450149118900299 
2067	 0.450728416442871 
2068	 0.451261281967163 
2069	 0.451830714941025 
2070	 0.452492088079453 
2071	 0.453058451414108 
2072	 0.45356085896492 
2073	 0.45410481095314 
2074	 0.454538434743881 
2075	 0.454936325550079 
2076	 0.455449342727661 
2077	 0.455863207578659 
2078	 0.456214249134064 
2079	 0.456580549478531 
2080	 0.456917613744736 
2081	 0.457156807184219 
2082	 0.457446098327637 
2083	 0.457821518182755 
2084	 0.458050668239594 
2085	 0.458157390356064 
2086	 0.458323329687119 
2087	 0.458561807870865 
2088	 0.458619713783264 
2089	 0.458581775426865 
2090	 0.458541333675385 
2091	 0.458477139472961 
2092	 0.458291411399841 
2093	 0.458176612854004 
2094	 0.45807147026062 
2095	 0.457749158143997 
2096	 0.457371592521667 
2097	 0.457157403230667 
2098	 0.457094103097916 
2099	 0.45683354139328 
2100	 0.456576287746429 
2101	 0.456309169530869 
2102	 0.455836445093155 
2103	 0.455525130033493 
2104	 0.455395340919495 
2105	 0.455142498016357 
2106	 0.454814910888672 
2107	 0.454578310251236 
2108	 0.454331398010254 
2109	 0.454084038734436 
2110	 0.453999668359756 
2111	 0.453910946846008 
2112	 0.453807413578033 
2113	 0.453730344772339 
2114	 0.453651010990143 
2115	 0.453549742698669 
2116	 0.45350655913353 
2117	 0.453507095575333 
2118	 0.453516006469727 
2119	 0.453586667776108 
2120	 0.45356622338295 
2121	 0.453488081693649 
2122	 0.453473150730133 
2123	 0.453436225652695 
2124	 0.45343342423439 
2125	 0.453532367944717 
2126	 0.453529566526413 
2127	 0.453542947769165 
2128	 0.453553915023804 
2129	 0.453515619039536 
2130	 0.453456193208694 
2131	 0.453374087810516 
2132	 0.453388810157776 
2133	 0.453347086906433 
2134	 0.453378140926361 
2135	 0.453239589929581 
2136	 0.452991515398026 
2137	 0.452764868736267 
2138	 0.452518373727798 
2139	 0.452180445194244 
2140	 0.451833724975586 
2141	 0.451357543468475 
2142	 0.450774192810059 
2143	 0.450106561183929 
2144	 0.449391037225723 
2145	 0.44853213429451 
2146	 0.447569727897644 
2147	 0.446402847766876 
2148	 0.445127427577972 
2149	 0.444069296121597 
2150	 0.443022102117538 
2151	 0.441936522722244 
2152	 0.440926194190979 
2153	 0.440008223056793 
2154	 0.439019322395325 
2155	 0.43802997469902 
2156	 0.437062382698059 
2157	 0.436104297637939 
2158	 0.435103237628937 
2159	 0.433987617492676 
2160	 0.433082789182663 
2161	 0.432319164276123 
2162	 0.431496441364288 
2163	 0.430774033069611 
2164	 0.430021464824677 
2165	 0.429212331771851 
2166	 0.428458601236343 
2167	 0.427758395671844 
2168	 0.427058100700378 
2169	 0.426410406827927 
2170	 0.425666809082031 
2171	 0.424891322851181 
2172	 0.424193829298019 
2173	 0.423517882823944 
2174	 0.422855168581009 
2175	 0.422150105237961 
2176	 0.421570241451263 
2177	 0.420768529176712 
2178	 0.419789910316467 
2179	 0.418828099966049 
2180	 0.41778039932251 
2181	 0.416704148054123 
2182	 0.415715217590332 
2183	 0.414474636316299 
2184	 0.413040071725845 
2185	 0.411615252494812 
2186	 0.410107403993607 
2187	 0.408398807048798 
2188	 0.406775087118149 
2189	 0.404991269111633 
2190	 0.403092950582504 
2191	 0.40129229426384 
2192	 0.399530798196793 
2193	 0.397799730300903 
2194	 0.396062344312668 
2195	 0.394267678260803 
2196	 0.392532706260681 
2197	 0.390868693590164 
2198	 0.389066904783249 
2199	 0.387349545955658 
2200	 0.385351330041885 
2201	 0.383088529109955 
2202	 0.380811989307404 
2203	 0.378360331058502 
2204	 0.375963300466537 
2205	 0.373373597860336 
2206	 0.371096134185791 
2207	 0.368603110313416 
2208	 0.366872370243073 
2209	 0.365698426961899 
2210	 0.364730566740036 
2211	 0.364263206720352 
2212	 0.364082992076874 
2213	 0.363917768001556 
2214	 0.363864153623581 
2215	 0.363880038261414 
2216	 0.36386701464653 
2217	 0.363724827766418 
2218	 0.363229930400848 
2219	 0.362402319908142 
2220	 0.361201167106628 
2221	 0.359798610210419 
2222	 0.358105421066284 
2223	 0.356256663799286 
2224	 0.354289531707764 
2225	 0.352050364017487 
2226	 0.349508285522461 
2227	 0.346855401992798 
2228	 0.343927443027496 
2229	 0.341011077165604 
2230	 0.33796301484108 
2231	 0.334805876016617 
2232	 0.331622093915939 
2233	 0.328289777040482 
2234	 0.324576765298843 
2235	 0.32118809223175 
2236	 0.317984998226166 
2237	 0.314549088478088 
2238	 0.311007887125015 
2239	 0.307741612195969 
2240	 0.304344087839127 
2241	 0.301004588603973 
2242	 0.298198878765106 
2243	 0.295596301555634 
2244	 0.293034225702286 
2245	 0.290810346603394 
2246	 0.288863182067871 
2247	 0.287134110927582 
2248	 0.285665541887283 
2249	 0.284459233283997 
2250	 0.283741801977158 
2251	 0.283371925354004 
2252	 0.283102601766586 
2253	 0.283141016960144 
2254	 0.283446788787842 
2255	 0.28394141793251 
2256	 0.284566134214401 
2257	 0.285563170909882 
2258	 0.286612123250961 
2259	 0.287794351577759 
2260	 0.288992017507553 
2261	 0.290433436632156 
2262	 0.291718482971191 
2263	 0.293026447296143 
2264	 0.294100075960159 
2265	 0.295124024152756 
2266	 0.295969128608704 
2267	 0.29657918214798 
2268	 0.297106564044952 
2269	 0.297481387853622 
2270	 0.297862410545349 
2271	 0.298235803842545 
2272	 0.298344761133194 
2273	 0.298458367586136 
2274	 0.298363327980042 
2275	 0.297956258058548 
2276	 0.297453612089157 
2277	 0.296762943267822 
2278	 0.296020567417145 
2279	 0.295187681913376 
2280	 0.294139415025711 
2281	 0.292935371398926 
2282	 0.291575878858566 
2283	 0.290067136287689 
2284	 0.288372278213501 
2285	 0.286589026451111 
2286	 0.28456974029541 
2287	 0.282256036996841 
2288	 0.280067920684814 
2289	 0.278086870908737 
2290	 0.276016652584076 
2291	 0.274142116308212 
2292	 0.272524386644363 
2293	 0.270913243293762 
2294	 0.269261866807938 
2295	 0.267896503210068 
2296	 0.266823321580887 
2297	 0.265655815601349 
2298	 0.264576226472855 
2299	 0.263549953699112 
2300	 0.262509524822235 
2301	 0.261568248271942 
2302	 0.260872900485992 
2303	 0.259958505630493 
2304	 0.259069681167603 
2305	 0.257983803749084 
2306	 0.25662037730217 
2307	 0.25538557767868 
2308	 0.254061281681061 
2309	 0.252794504165649 
2310	 0.251695871353149 
2311	 0.250419586896896 
2312	 0.24902281165123 
2313	 0.247730374336243 
2314	 0.246288999915123 
2315	 0.244975179433823 
2316	 0.243747800588608 
2317	 0.242663130164146 
2318	 0.241416156291962 
2319	 0.240530654788017 
2320	 0.239854887127876 
2321	 0.239109799265862 
2322	 0.238564074039459 
2323	 0.238082259893417 
2324	 0.237566381692886 
2325	 0.237154722213745 
2326	 0.23679193854332 
2327	 0.236548185348511 
2328	 0.236407667398453 
2329	 0.23617821931839 
2330	 0.236165300011635 
2331	 0.236256748437881 
2332	 0.236175492405891 
2333	 0.236171439290047 
2334	 0.236268550157547 
2335	 0.236410871148109 
2336	 0.236694693565369 
2337	 0.237124234437943 
2338	 0.237527325749397 
2339	 0.237953439354897 
2340	 0.238451674580574 
2341	 0.238919168710709 
2342	 0.239396259188652 
2343	 0.239878311753273 
2344	 0.240287348628044 
2345	 0.240895375609398 
2346	 0.24178421497345 
2347	 0.242529436945915 
2348	 0.243273019790649 
2349	 0.244147121906281 
2350	 0.244935810565948 
2351	 0.245502755045891 
2352	 0.24634675681591 
2353	 0.24749082326889 
2354	 0.248261049389839 
2355	 0.248780116438866 
2356	 0.24968484044075 
2357	 0.250630170106888 
2358	 0.251555174589157 
2359	 0.252846658229828 
2360	 0.253779679536819 
2361	 0.254355192184448 
2362	 0.255121052265167 
2363	 0.25581955909729 
2364	 0.256866604089737 
2365	 0.258183985948563 
2366	 0.259218543767929 
2367	 0.26037135720253 
2368	 0.261398524045944 
2369	 0.262210726737976 
2370	 0.262991368770599 
2371	 0.263820081949234 
2372	 0.264589697122574 
2373	 0.265253752470016 
2374	 0.265722751617432 
2375	 0.266164124011993 
2376	 0.266457289457321 
2377	 0.266374409198761 
2378	 0.266500383615494 
2379	 0.266827404499054 
2380	 0.266821891069412 
2381	 0.266522854566574 
2382	 0.266457736492157 
2383	 0.266379833221436 
2384	 0.26624995470047 
2385	 0.266360938549042 
2386	 0.266152262687683 
2387	 0.265440940856934 
2388	 0.265196710824966 
2389	 0.265062928199768 
2390	 0.264977842569351 
2391	 0.265177190303802 
2392	 0.265379637479782 
2393	 0.265550434589386 
2394	 0.265761703252792 
2395	 0.266105860471725 
2396	 0.266416996717453 
2397	 0.266672760248184 
2398	 0.26703143119812 
2399	 0.26756826043129 
2400	 0.267970949411392 
2401	 0.268206089735031 
2402	 0.268727689981461 
2403	 0.26949405670166 
2404	 0.269911229610443 
2405	 0.270320355892181 
2406	 0.270780146121979 
2407	 0.270984023809433 
2408	 0.271257102489471 
2409	 0.271828442811966 
2410	 0.271983861923218 
2411	 0.271837085485458 
2412	 0.271778434514999 
2413	 0.27155140042305 
2414	 0.271380245685577 
2415	 0.271270304918289 
2416	 0.270919382572174 
2417	 0.270456910133362 
2418	 0.27006134390831 
2419	 0.269450664520264 
2420	 0.269002079963684 
2421	 0.268897652626038 
2422	 0.268273502588272 
2423	 0.267304003238678 
2424	 0.266580581665039 
2425	 0.265591889619827 
2426	 0.264792203903198 
2427	 0.264515101909637 
2428	 0.263687640428543 
2429	 0.262364029884338 
2430	 0.261460274457932 
2431	 0.260491073131561 
2432	 0.259647756814957 
2433	 0.259295403957367 
2434	 0.258489608764648 
2435	 0.257305115461349 
2436	 0.256431490182877 
2437	 0.255458831787109 
2438	 0.254678726196289 
2439	 0.254193276166916 
2440	 0.253701031208038 
2441	 0.253247797489166 
2442	 0.252847135066986 
2443	 0.252681940793991 
2444	 0.252080202102661 
2445	 0.251313984394073 
2446	 0.250435054302216 
2447	 0.249220222234726 
2448	 0.248425334692001 
2449	 0.247771799564362 
2450	 0.246926590800285 
2451	 0.246060565114021 
2452	 0.245440885424614 
2453	 0.244829177856445 
2454	 0.244400635361671 
2455	 0.243974879384041 
2456	 0.243442639708519 
2457	 0.24221870303154 
2458	 0.241002917289734 
2459	 0.24055415391922 
2460	 0.240301877260208 
2461	 0.239968731999397 
2462	 0.239634990692139 
2463	 0.239130899310112 
2464	 0.238165378570557 
2465	 0.237452208995819 
2466	 0.237036556005478 
2467	 0.236526414752007 
2468	 0.235956385731697 
2469	 0.23547226190567 
2470	 0.235357686877251 
2471	 0.234708622097969 
2472	 0.233443275094032 
2473	 0.232744917273521 
2474	 0.231763556599617 
2475	 0.231279969215393 
2476	 0.23169519007206 
2477	 0.231818288564682 
2478	 0.231936559081078 
2479	 0.232145071029663 
2480	 0.232793182134628 
2481	 0.232712805271149 
2482	 0.232129648327827 
2483	 0.231773316860199 
2484	 0.230775400996208 
2485	 0.230375185608864 
2486	 0.230961561203003 
2487	 0.23051892220974 
2488	 0.229423671960831 
2489	 0.228858023881912 
2490	 0.22756439447403 
2491	 0.227472797036171 
2492	 0.228747799992561 
2493	 0.229198053479195 
2494	 0.230151891708374 
2495	 0.230126887559891 
2496	 0.228984460234642 
2497	 0.228724464774132 
2498	 0.228438347578049 
2499	 0.228182464838028 
2500	 0.228258565068245 
