
Text conversion of header file \A_MEDIDAS\PROJETOS\BRASIL\BLOCO GAVIAO\JACOBINA\CANIF27\sco\CANIF27_029.70_00000.asd.ref
 -------------------------------------------------------------
                                                                                                                                                            
The instrument number was  16586/1
New ASD spectrum file: Program version = 6.00 file version = 1.00
Spectrum saved: 10/16/2018 at 10:15:22
VNIR integration time : 34
VNIR channel 1 wavelength = 350 wavelength step = 1
There were 50 samples per data value
xmin = 350 xmax= 2500
ymin= 0 ymax= 1.25
The instrument digitizes spectral values to 16 bits
SWIR1 gain was 203 offset was 2094
SWIR2 gain was 499 offset was 2264
Join between VNIR and SWIR1 was 1000 nm
Join between SWIR1 and SWIR2 was 1830 nm
Absolute Reflectance is Enabled
The Absolute Reflectance File is abs165861.ref
VNIR dark signal subtracted
50 dark measurements taken Tue Oct 16 10:13:56 2018
DCC value was 0
Data is compared to a white reference:
60 white reference measurements taken Tue Oct 16 10:14:04 2018
There was no foreoptic attached
Spectrum file is reflectance data
GPS-Latitude is S0
GPS-Longitude is E0
GPS-Altitude is 0
GPS-UTC is Wed Dec 31 17:00:00 1969

Smart Detector
Serial#  0
Signal (A)  0.000E00
Dark (A)  0.000E00
Ref (A)  0.000E00
Status  0 - Uninitialized
Gain  E-4
Averaging  0
Temp (C)  0.0
Humid (%)  0.0

Reflectance Absolute
Wavelength	CANIF27_29.70_00000.asd.ref
350	 0.155614450573921 
351	 0.149650260806084 
352	 0.149927482008934 
353	 0.160528004169464 
354	 0.174791023135185 
355	 0.163174375891685 
356	 0.161125257611275 
357	 0.163279056549072 
358	 0.156124100089073 
359	 0.153531521558762 
360	 0.155332610011101 
361	 0.158463940024376 
362	 0.15907521545887 
363	 0.160113245248795 
364	 0.164095416665077 
365	 0.16752065718174 
366	 0.158819064497948 
367	 0.155457988381386 
368	 0.159069523215294 
369	 0.165571242570877 
370	 0.168067023158073 
371	 0.164927065372467 
372	 0.162053480744362 
373	 0.166157558560371 
374	 0.166498988866806 
375	 0.166064918041229 
376	 0.165605202317238 
377	 0.162621930241585 
378	 0.163233697414398 
379	 0.165639713406563 
380	 0.167418241500854 
381	 0.168527230620384 
382	 0.168292984366417 
383	 0.168196752667427 
384	 0.169552832841873 
385	 0.168109938502312 
386	 0.168333634734154 
387	 0.169850543141365 
388	 0.168104112148285 
389	 0.169679924845695 
390	 0.171354249119759 
391	 0.170792207121849 
392	 0.170604825019836 
393	 0.169978231191635 
394	 0.169488534331322 
395	 0.169762834906578 
396	 0.169821918010712 
397	 0.169528171420097 
398	 0.169932812452316 
399	 0.17243267595768 
400	 0.171344384551048 
401	 0.170649349689484 
402	 0.172381207346916 
403	 0.172811448574066 
404	 0.172645583748817 
405	 0.172182157635689 
406	 0.171843811869621 
407	 0.172647684812546 
408	 0.173558712005615 
409	 0.17378942668438 
410	 0.173022463917732 
411	 0.173056915402412 
412	 0.173674583435059 
413	 0.174440443515778 
414	 0.175094410777092 
415	 0.174905866384506 
416	 0.174296408891678 
417	 0.173979297280312 
418	 0.174451798200607 
419	 0.174509152770042 
420	 0.174335852265358 
421	 0.174858242273331 
422	 0.174996897578239 
423	 0.174879550933838 
424	 0.174741819500923 
425	 0.17473678290844 
426	 0.174997866153717 
427	 0.175279930233955 
428	 0.175389379262924 
429	 0.175710737705231 
430	 0.175885856151581 
431	 0.175787523388863 
432	 0.175526291131973 
433	 0.175889387726784 
434	 0.176346018910408 
435	 0.176476195454597 
436	 0.1762365847826 
437	 0.176321774721146 
438	 0.176783636212349 
439	 0.177323624491692 
440	 0.177154719829559 
441	 0.176899984478951 
442	 0.176847904920578 
443	 0.176989302039146 
444	 0.176924020051956 
445	 0.176914364099503 
446	 0.177066192030907 
447	 0.177104204893112 
448	 0.177009731531143 
449	 0.176881745457649 
450	 0.176845610141754 
451	 0.176958993077278 
452	 0.177096262574196 
453	 0.177130520343781 
454	 0.176969841122627 
455	 0.17685241997242 
456	 0.176892325282097 
457	 0.177011415362358 
458	 0.176807686686516 
459	 0.176643267273903 
460	 0.176503375172615 
461	 0.176339372992516 
462	 0.176591411232948 
463	 0.17665359377861 
464	 0.176394537091255 
465	 0.176149219274521 
466	 0.176093012094498 
467	 0.176138013601303 
468	 0.17614808678627 
469	 0.175988122820854 
470	 0.175948187708855 
471	 0.175920471549034 
472	 0.175699636340141 
473	 0.175505146384239 
474	 0.175456091761589 
475	 0.175507262349129 
476	 0.175454095005989 
477	 0.175416544079781 
478	 0.175242722034454 
479	 0.174918591976166 
480	 0.174968242645264 
481	 0.174899309873581 
482	 0.174779504537582 
483	 0.174885809421539 
484	 0.174818336963654 
485	 0.174694061279297 
486	 0.174628481268883 
487	 0.174666717648506 
488	 0.174666523933411 
489	 0.174627333879471 
490	 0.174577102065086 
491	 0.174483120441437 
492	 0.174497172236443 
493	 0.174571469426155 
494	 0.174546122550964 
495	 0.174545854330063 
496	 0.174514636397362 
497	 0.174422815442085 
498	 0.174307271838188 
499	 0.174409240484238 
500	 0.174517840147018 
501	 0.174394682049751 
502	 0.174325615167618 
503	 0.174362480640411 
504	 0.174431830644608 
505	 0.174377843737602 
506	 0.174315184354782 
507	 0.17421780526638 
508	 0.174118474125862 
509	 0.174236655235291 
510	 0.174300223588943 
511	 0.174301415681839 
512	 0.174319744110107 
513	 0.174341782927513 
514	 0.174236238002777 
515	 0.174061879515648 
516	 0.174064233899117 
517	 0.174081042408943 
518	 0.174073666334152 
519	 0.174052983522415 
520	 0.174103736877441 
521	 0.174082159996033 
522	 0.174029856920242 
523	 0.174060821533203 
524	 0.174116581678391 
525	 0.174103975296021 
526	 0.174016416072845 
527	 0.173958480358124 
528	 0.173985868692398 
529	 0.173983335494995 
530	 0.173880949616432 
531	 0.17392610013485 
532	 0.173897922039032 
533	 0.173788860440254 
534	 0.173729449510574 
535	 0.173728302121162 
536	 0.173770040273666 
537	 0.173797339200974 
538	 0.173680752515793 
539	 0.173655465245247 
540	 0.173729449510574 
541	 0.173815712332726 
542	 0.173768281936646 
543	 0.173747926950455 
544	 0.173779740929604 
545	 0.173769667744637 
546	 0.173777267336845 
547	 0.173821091651917 
548	 0.173888608813286 
549	 0.17391599714756 
550	 0.173933506011963 
551	 0.173913732171059 
552	 0.17384235560894 
553	 0.173902168869972 
554	 0.173969700932503 
555	 0.174019604921341 
556	 0.174152731895447 
557	 0.174270793795586 
558	 0.174354702234268 
559	 0.174417078495026 
560	 0.174497827887535 
561	 0.174640774726868 
562	 0.174768030643463 
563	 0.174776539206505 
564	 0.174908027052879 
565	 0.175056532025337 
566	 0.175172314047813 
567	 0.175332605838776 
568	 0.175531089305878 
569	 0.175730809569359 
570	 0.175898388028145 
571	 0.176055267453194 
572	 0.176209822297096 
573	 0.176321625709534 
574	 0.176338464021683 
575	 0.176487028598785 
576	 0.176611259579659 
577	 0.176649883389473 
578	 0.176822498440742 
579	 0.176938369870186 
580	 0.177038952708244 
581	 0.177200630307198 
582	 0.177299067378044 
583	 0.177351281046867 
584	 0.177429005503654 
585	 0.177634939551353 
586	 0.177830070257187 
587	 0.177984416484833 
588	 0.1781155616045 
589	 0.178301557898521 
590	 0.178485572338104 
591	 0.178648769855499 
592	 0.178784683346748 
593	 0.178858324885368 
594	 0.178929507732391 
595	 0.17900724709034 
596	 0.179040938615799 
597	 0.179058656096458 
598	 0.17907227575779 
599	 0.179092824459076 
600	 0.179139330983162 
601	 0.179192304611206 
602	 0.179213255643845 
603	 0.17917600274086 
604	 0.179205641150475 
605	 0.179244324564934 
606	 0.179258659482002 
607	 0.179270565509796 
608	 0.179359927773476 
609	 0.179447129368782 
610	 0.179455488920212 
611	 0.179452568292618 
612	 0.179439842700958 
613	 0.179414317011833 
614	 0.179373055696487 
615	 0.179341986775398 
616	 0.179322555661201 
617	 0.179306164383888 
618	 0.179273411631584 
619	 0.17926113307476 
620	 0.179230079054832 
621	 0.179150059819221 
622	 0.1791051030159 
623	 0.179079458117485 
624	 0.179061681032181 
625	 0.179043024778366 
626	 0.178997069597244 
627	 0.178980946540833 
628	 0.178997650742531 
629	 0.178934529423714 
630	 0.178917929530144 
631	 0.17891101539135 
632	 0.178856670856476 
633	 0.17884087562561 
634	 0.178837835788727 
635	 0.178816244006157 
636	 0.178753316402435 
637	 0.178753465414047 
638	 0.178768187761307 
639	 0.178761661052704 
640	 0.178767651319504 
641	 0.178791299462318 
642	 0.178774133324623 
643	 0.178680047392845 
644	 0.178671061992645 
645	 0.178654447197914 
646	 0.178613990545273 
647	 0.178598999977112 
648	 0.178551346063614 
649	 0.178537741303444 
650	 0.178581848740578 
651	 0.178589388728142 
652	 0.178598001599312 
653	 0.178620502352715 
654	 0.178654044866562 
655	 0.178660556674004 
656	 0.178637698292732 
657	 0.178632378578186 
658	 0.178716018795967 
659	 0.17877459526062 
660	 0.178791508078575 
661	 0.178780183196068 
662	 0.178772017359734 
663	 0.178854256868362 
664	 0.178952947258949 
665	 0.178976312279701 
666	 0.17901611328125 
667	 0.179026648402214 
668	 0.179029747843742 
669	 0.179092362523079 
670	 0.179159790277481 
671	 0.179236069321632 
672	 0.179298460483551 
673	 0.179260239005089 
674	 0.179313749074936 
675	 0.17942963540554 
676	 0.179513275623322 
677	 0.179505258798599 
678	 0.179514139890671 
679	 0.179560914635658 
680	 0.179602816700935 
681	 0.179624602198601 
682	 0.17963182926178 
683	 0.179635763168335 
684	 0.179650485515594 
685	 0.179643526673317 
686	 0.179666981101036 
687	 0.179761230945587 
688	 0.179869472980499 
689	 0.179919943213463 
690	 0.179926693439484 
691	 0.179956942796707 
692	 0.180067136883736 
693	 0.180162847042084 
694	 0.180221125483513 
695	 0.180319055914879 
696	 0.180400773882866 
697	 0.180472105741501 
698	 0.180555492639542 
699	 0.180685192346573 
700	 0.180808156728745 
701	 0.180903568863869 
702	 0.180974185466766 
703	 0.181059017777443 
704	 0.181174486875534 
705	 0.181292608380318 
706	 0.181357517838478 
707	 0.181489035487175 
708	 0.181563302874565 
709	 0.181560426950455 
710	 0.181727573275566 
711	 0.181826710700989 
712	 0.181887522339821 
713	 0.181985944509506 
714	 0.182044148445129 
715	 0.182102590799332 
716	 0.182179301977158 
717	 0.182269752025604 
718	 0.182319387793541 
719	 0.182401865720749 
720	 0.182514175772667 
721	 0.182545691728592 
722	 0.182598531246185 
723	 0.182667404413223 
724	 0.182723000645638 
725	 0.182734847068787 
726	 0.182739600539207 
727	 0.182783752679825 
728	 0.18289452791214 
729	 0.183011561632156 
730	 0.183002188801765 
731	 0.182913973927498 
732	 0.182925701141357 
733	 0.182994529604912 
734	 0.18302521109581 
735	 0.183002918958664 
736	 0.183043345808983 
737	 0.183060675859451 
738	 0.183066248893738 
739	 0.183082684874535 
740	 0.183105602860451 
741	 0.183021232485771 
742	 0.18291150033474 
743	 0.182911515235901 
744	 0.182934805750847 
745	 0.182896479964256 
746	 0.182825431227684 
747	 0.182826563715935 
748	 0.182707190513611 
749	 0.18263153731823 
750	 0.182664841413498 
751	 0.182648226618767 
752	 0.182566836476326 
753	 0.182478442788124 
754	 0.182426810264587 
755	 0.182351022958755 
756	 0.182294204831123 
757	 0.182219222187996 
758	 0.182083815336227 
759	 0.181989923119545 
760	 0.181899830698967 
761	 0.181797072291374 
762	 0.181689277291298 
763	 0.181601479649544 
764	 0.181490629911423 
765	 0.18136166036129 
766	 0.181287497282028 
767	 0.181139394640923 
768	 0.180963546037674 
769	 0.180816620588303 
770	 0.180687263607979 
771	 0.180581882596016 
772	 0.18046797811985 
773	 0.180316537618637 
774	 0.180164456367493 
775	 0.179977416992188 
776	 0.17979933321476 
777	 0.179695025086403 
778	 0.179574862122536 
779	 0.179393127560616 
780	 0.179187834262848 
781	 0.179056450724602 
782	 0.178894653916359 
783	 0.178687334060669 
784	 0.178481325507164 
785	 0.178386494517326 
786	 0.178272724151611 
787	 0.178106680512428 
788	 0.177893906831741 
789	 0.177660137414932 
790	 0.177535623311996 
791	 0.177447557449341 
792	 0.17727991938591 
793	 0.177049621939659 
794	 0.176823601126671 
795	 0.17665721476078 
796	 0.17656846344471 
797	 0.176443740725517 
798	 0.176274865865707 
799	 0.176050171256065 
800	 0.175767987966537 
801	 0.175573885440826 
802	 0.175438165664673 
803	 0.175319761037827 
804	 0.175193563103676 
805	 0.174972891807556 
806	 0.174790754914284 
807	 0.174696579575539 
808	 0.174521431326866 
809	 0.174321487545967 
810	 0.174134314060211 
811	 0.173971876502037 
812	 0.173787549138069 
813	 0.173580393195152 
814	 0.173428237438202 
815	 0.173363715410233 
816	 0.173151478171349 
817	 0.172930926084518 
818	 0.172769203782082 
819	 0.172661617398262 
820	 0.172462403774261 
821	 0.172304734587669 
822	 0.172184273600578 
823	 0.172005742788315 
824	 0.171832486987114 
825	 0.171698123216629 
826	 0.171580731868744 
827	 0.171413630247116 
828	 0.171182677149773 
829	 0.171030879020691 
830	 0.17096047103405 
831	 0.170785248279572 
832	 0.170597359538078 
833	 0.170454204082489 
834	 0.17033451795578 
835	 0.170108079910278 
836	 0.169998899102211 
837	 0.169904336333275 
838	 0.169749900698662 
839	 0.169685319066048 
840	 0.169522106647491 
841	 0.169351205229759 
842	 0.169259324669838 
843	 0.16910158097744 
844	 0.168975904583931 
845	 0.168864652514458 
846	 0.168729394674301 
847	 0.168593317270279 
848	 0.168461069464684 
849	 0.168341010808945 
850	 0.168239399790764 
851	 0.168151289224625 
852	 0.168081447482109 
853	 0.167993530631065 
854	 0.167858242988586 
855	 0.167773053050041 
856	 0.167652174830437 
857	 0.167502760887146 
858	 0.167386561632156 
859	 0.16731758415699 
860	 0.167271047830582 
861	 0.167210534214973 
862	 0.167102962732315 
863	 0.166951194405556 
864	 0.166851609945297 
865	 0.16681395471096 
866	 0.166773542761803 
867	 0.16669736802578 
868	 0.166529282927513 
869	 0.166363134980202 
870	 0.166373625397682 
871	 0.166404917836189 
872	 0.16638608276844 
873	 0.166310638189316 
874	 0.166221126914024 
875	 0.166094899177551 
876	 0.166030824184418 
877	 0.166048496961594 
878	 0.166069611907005 
879	 0.16596707701683 
880	 0.165863022208214 
881	 0.165812283754349 
882	 0.165771186351776 
883	 0.165750801563263 
884	 0.165718913078308 
885	 0.16569359600544 
886	 0.165724754333496 
887	 0.165641367435455 
888	 0.165601536631584 
889	 0.165626093745232 
890	 0.165577337145805 
891	 0.165542647242546 
892	 0.165505588054657 
893	 0.165448561310768 
894	 0.165377378463745 
895	 0.165394023060799 
896	 0.165473446249962 
897	 0.165554016828537 
898	 0.165568724274635 
899	 0.165530115365982 
900	 0.165480479598045 
901	 0.165448412299156 
902	 0.165446445345879 
903	 0.165514037013054 
904	 0.165512755513191 
905	 0.165476188063622 
906	 0.165550336241722 
907	 0.165620222687721 
908	 0.165617600083351 
909	 0.165586531162262 
910	 0.16561932861805 
911	 0.16562058031559 
912	 0.16566601395607 
913	 0.165707781910896 
914	 0.1656703799963 
915	 0.165750622749329 
916	 0.165808826684952 
917	 0.165814533829689 
918	 0.165816366672516 
919	 0.165888696908951 
920	 0.165919974446297 
921	 0.165952265262604 
922	 0.166035011410713 
923	 0.165982589125633 
924	 0.166006669402122 
925	 0.166105076670647 
926	 0.166195407509804 
927	 0.166220471262932 
928	 0.166221812367439 
929	 0.166277408599854 
930	 0.166398614645004 
931	 0.166443437337875 
932	 0.166449129581451 
933	 0.166503459215164 
934	 0.166613325476646 
935	 0.166645660996437 
936	 0.166719049215317 
937	 0.166806370019913 
938	 0.166876599192619 
939	 0.166931167244911 
940	 0.166978880763054 
941	 0.167031541466713 
942	 0.16709178686142 
943	 0.167161747813225 
944	 0.167313456535339 
945	 0.167410805821419 
946	 0.167440667748451 
947	 0.167477816343307 
948	 0.167508661746979 
949	 0.167562916874886 
950	 0.167598009109497 
951	 0.167590439319611 
952	 0.167703196406364 
953	 0.16779263317585 
954	 0.167851358652115 
955	 0.167910397052765 
956	 0.167973354458809 
957	 0.167998015880585 
958	 0.168091744184494 
959	 0.168255209922791 
960	 0.16829426586628 
961	 0.168229192495346 
962	 0.168292507529259 
963	 0.168483659625053 
964	 0.168576896190643 
965	 0.168718576431274 
966	 0.168816387653351 
967	 0.168845742940903 
968	 0.168848931789398 
969	 0.16886679828167 
970	 0.169043079018593 
971	 0.169242367148399 
972	 0.169319927692413 
973	 0.169426128268242 
974	 0.1695536673069 
975	 0.169692069292068 
976	 0.169762879610062 
977	 0.169642493128777 
978	 0.169764965772629 
979	 0.169976815581322 
980	 0.170070707798004 
981	 0.169983640313148 
982	 0.170148104429245 
983	 0.170245826244354 
984	 0.170254707336426 
985	 0.170293480157852 
986	 0.170250996947289 
987	 0.170300036668777 
988	 0.170340403914452 
989	 0.170324951410294 
990	 0.170444086194038 
991	 0.170500084757805 
992	 0.170547485351563 
993	 0.170633807778358 
994	 0.170736163854599 
995	 0.170767351984978 
996	 0.170762374997139 
997	 0.170747235417366 
998	 0.170727223157883 
999	 0.170674368739128 
1000	 0.170716479420662 
1001	 0.167107671499252 
1002	 0.167099386453629 
1003	 0.167032599449158 
1004	 0.167045176029205 
1005	 0.167189031839371 
1006	 0.167167752981186 
1007	 0.167184665799141 
1008	 0.167224317789078 
1009	 0.167230099439621 
1010	 0.167135864496231 
1011	 0.167142242193222 
1012	 0.167228922247887 
1013	 0.167274013161659 
1014	 0.167321145534515 
1015	 0.167358264327049 
1016	 0.167436569929123 
1017	 0.167397752404213 
1018	 0.167333126068115 
1019	 0.167214617133141 
1020	 0.167083457112312 
1021	 0.167038947343826 
1022	 0.167094483971596 
1023	 0.167186960577965 
1024	 0.167221441864967 
1025	 0.167288139462471 
1026	 0.167288228869438 
1027	 0.167183935642242 
1028	 0.167157292366028 
1029	 0.167181208729744 
1030	 0.167123094201088 
1031	 0.167044132947922 
1032	 0.167014867067337 
1033	 0.166973993182182 
1034	 0.16694650053978 
1035	 0.166931077837944 
1036	 0.16695947945118 
1037	 0.166974291205406 
1038	 0.166881933808327 
1039	 0.166839256882668 
1040	 0.166850179433823 
1041	 0.166803672909737 
1042	 0.166704818606377 
1043	 0.166677057743073 
1044	 0.166722699999809 
1045	 0.166600823402405 
1046	 0.166497901082039 
1047	 0.166412934660912 
1048	 0.1662727445364 
1049	 0.166214466094971 
1050	 0.166149482131004 
1051	 0.166036576032639 
1052	 0.16597281396389 
1053	 0.165878430008888 
1054	 0.165844917297363 
1055	 0.165937304496765 
1056	 0.165935009717941 
1057	 0.165893599390984 
1058	 0.16589529812336 
1059	 0.16584450006485 
1060	 0.165736436843872 
1061	 0.16571232676506 
1062	 0.165625676512718 
1063	 0.165565744042397 
1064	 0.16548416018486 
1065	 0.16539765894413 
1066	 0.165384560823441 
1067	 0.165322810411453 
1068	 0.165267080068588 
1069	 0.165186136960983 
1070	 0.165045157074928 
1071	 0.164957225322723 
1072	 0.164869979023933 
1073	 0.164805203676224 
1074	 0.164821714162827 
1075	 0.164824903011322 
1076	 0.164742708206177 
1077	 0.164677172899246 
1078	 0.164567038416862 
1079	 0.164423033595085 
1080	 0.164393126964569 
1081	 0.164347395300865 
1082	 0.164262846112251 
1083	 0.164255738258362 
1084	 0.164171531796455 
1085	 0.164078786969185 
1086	 0.164040297269821 
1087	 0.164068698883057 
1088	 0.164006426930428 
1089	 0.163948193192482 
1090	 0.16394530236721 
1091	 0.163844302296638 
1092	 0.163749039173126 
1093	 0.163746684789658 
1094	 0.163679301738739 
1095	 0.1635712236166 
1096	 0.163513645529747 
1097	 0.163474842905998 
1098	 0.163385435938835 
1099	 0.163324892520905 
1100	 0.163290545344353 
1101	 0.163234367966652 
1102	 0.163113653659821 
1103	 0.163106486201286 
1104	 0.163125708699226 
1105	 0.163052260875702 
1106	 0.163000553846359 
1107	 0.162923410534859 
1108	 0.162789016962051 
1109	 0.162710890173912 
1110	 0.162668988108635 
1111	 0.162551730871201 
1112	 0.162509098649025 
1113	 0.162529289722443 
1114	 0.162477940320969 
1115	 0.162446543574333 
1116	 0.1623744815588 
1117	 0.162277713418007 
1118	 0.162112548947334 
1119	 0.162022337317467 
1120	 0.161968141794205 
1121	 0.161890640854836 
1122	 0.161827206611633 
1123	 0.161781013011932 
1124	 0.161683544516563 
1125	 0.161569625139236 
1126	 0.161496490240097 
1127	 0.161405190825462 
1128	 0.161347642540932 
1129	 0.161312773823738 
1130	 0.161227211356163 
1131	 0.161179900169373 
1132	 0.161130517721176 
1133	 0.161031976342201 
1134	 0.160944879055023 
1135	 0.160879582166672 
1136	 0.160781919956207 
1137	 0.160685047507286 
1138	 0.160639673471451 
1139	 0.160611554980278 
1140	 0.160578191280365 
1141	 0.160485997796059 
1142	 0.160405367612839 
1143	 0.160332217812538 
1144	 0.160219207406044 
1145	 0.160145416855812 
1146	 0.160065248608589 
1147	 0.159984230995178 
1148	 0.15996165573597 
1149	 0.159910351037979 
1150	 0.159851610660553 
1151	 0.159784778952599 
1152	 0.159714549779892 
1153	 0.159635156393051 
1154	 0.159522727131844 
1155	 0.159455731511116 
1156	 0.159404709935188 
1157	 0.159335970878601 
1158	 0.159282252192497 
1159	 0.159239158034325 
1160	 0.159158855676651 
1161	 0.159059762954712 
1162	 0.158980503678322 
1163	 0.158911034464836 
1164	 0.158842355012894 
1165	 0.158762022852898 
1166	 0.158690720796585 
1167	 0.158617809414864 
1168	 0.158552467823029 
1169	 0.158493280410767 
1170	 0.158435180783272 
1171	 0.158401116728783 
1172	 0.15835328400135 
1173	 0.158253729343414 
1174	 0.158183768391609 
1175	 0.158129140734673 
1176	 0.15804135799408 
1177	 0.157987654209137 
1178	 0.157923102378845 
1179	 0.157803446054459 
1180	 0.157713770866394 
1181	 0.15766516327858 
1182	 0.157623842358589 
1183	 0.157572314143181 
1184	 0.157547757029533 
1185	 0.15748356282711 
1186	 0.157376050949097 
1187	 0.157297745347023 
1188	 0.157220616936684 
1189	 0.157136738300323 
1190	 0.15710124373436 
1191	 0.157066777348518 
1192	 0.157013446092606 
1193	 0.156976774334908 
1194	 0.156899333000183 
1195	 0.15682153403759 
1196	 0.156782567501068 
1197	 0.156721085309982 
1198	 0.156645864248276 
1199	 0.156562462449074 
1200	 0.156474113464355 
1201	 0.156405448913574 
1202	 0.15634123980999 
1203	 0.156318292021751 
1204	 0.156247988343239 
1205	 0.156138986349106 
1206	 0.156055092811584 
1207	 0.155953973531723 
1208	 0.155878961086273 
1209	 0.155839443206787 
1210	 0.155816256999969 
1211	 0.155775651335716 
1212	 0.155680119991302 
1213	 0.155566588044167 
1214	 0.15547688305378 
1215	 0.155403926968575 
1216	 0.155351266264915 
1217	 0.155316010117531 
1218	 0.155253648757935 
1219	 0.155193313956261 
1220	 0.155120268464088 
1221	 0.155065983533859 
1222	 0.155028402805328 
1223	 0.154972106218338 
1224	 0.154906556010246 
1225	 0.154837474226952 
1226	 0.154749944806099 
1227	 0.154685392975807 
1228	 0.154639512300491 
1229	 0.154583558440208 
1230	 0.154502749443054 
1231	 0.154409185051918 
1232	 0.154291555285454 
1233	 0.154213234782219 
1234	 0.154184818267822 
1235	 0.154128164052963 
1236	 0.154052689671516 
1237	 0.153945371508598 
1238	 0.153845220804214 
1239	 0.15369901061058 
1240	 0.153627917170525 
1241	 0.153611272573471 
1242	 0.153558358550072 
1243	 0.153524070978165 
1244	 0.153456956148148 
1245	 0.15335239470005 
1246	 0.153276398777962 
1247	 0.15318974852562 
1248	 0.153142049908638 
1249	 0.153132602572441 
1250	 0.153062120079994 
1251	 0.152975767850876 
1252	 0.152911424636841 
1253	 0.152812898159027 
1254	 0.152697935700417 
1255	 0.152650475502014 
1256	 0.152636513113976 
1257	 0.15258501470089 
1258	 0.152523204684258 
1259	 0.152456060051918 
1260	 0.152339607477188 
1261	 0.152264103293419 
1262	 0.152223289012909 
1263	 0.152173042297363 
1264	 0.152127012610435 
1265	 0.152075827121735 
1266	 0.152033165097237 
1267	 0.151963368058205 
1268	 0.151855573058128 
1269	 0.151792988181114 
1270	 0.151740431785583 
1271	 0.151686817407608 
1272	 0.151659727096558 
1273	 0.151628836989403 
1274	 0.151543200016022 
1275	 0.151467800140381 
1276	 0.151398748159409 
1277	 0.151320815086365 
1278	 0.151277557015419 
1279	 0.15121528506279 
1280	 0.151132524013519 
1281	 0.151014268398285 
1282	 0.150954455137253 
1283	 0.15090149641037 
1284	 0.150848180055618 
1285	 0.150858193635941 
1286	 0.150801330804825 
1287	 0.150700747966766 
1288	 0.150606632232666 
1289	 0.150464102625847 
1290	 0.150377452373505 
1291	 0.150315389037132 
1292	 0.150247395038605 
1293	 0.150222361087799 
1294	 0.150190532207489 
1295	 0.150128602981567 
1296	 0.150068446993828 
1297	 0.149959847331047 
1298	 0.149825468659401 
1299	 0.149778410792351 
1300	 0.149743929505348 
1301	 0.149677753448486 
1302	 0.149675190448761 
1303	 0.14962600171566 
1304	 0.14951066672802 
1305	 0.149416729807854 
1306	 0.149321272969246 
1307	 0.149256870150566 
1308	 0.149214789271355 
1309	 0.149149790406227 
1310	 0.149097681045532 
1311	 0.1490458548069 
1312	 0.148947656154633 
1313	 0.148881614208221 
1314	 0.148871436715126 
1315	 0.148847907781601 
1316	 0.14883778989315 
1317	 0.148793011903763 
1318	 0.14872145652771 
1319	 0.14862148463726 
1320	 0.1485635638237 
1321	 0.148522436618805 
1322	 0.148450002074242 
1323	 0.148417830467224 
1324	 0.148363202810287 
1325	 0.148279175162315 
1326	 0.148217797279358 
1327	 0.148186057806015 
1328	 0.14813868701458 
1329	 0.148084461688995 
1330	 0.148026838898659 
1331	 0.148011177778244 
1332	 0.147933647036552 
1333	 0.147767335176468 
1334	 0.147681534290314 
1335	 0.147597134113312 
1336	 0.147538810968399 
1337	 0.147563338279724 
1338	 0.147540971636772 
1339	 0.147505149245262 
1340	 0.147448927164078 
1341	 0.147355124354362 
1342	 0.147298038005829 
1343	 0.14722840487957 
1344	 0.147180676460266 
1345	 0.14717972278595 
1346	 0.147144809365273 
1347	 0.147080421447754 
1348	 0.147022768855095 
1349	 0.146956458687782 
1350	 0.146868124604225 
1351	 0.146809414029121 
1352	 0.146784946322441 
1353	 0.14672976732254 
1354	 0.146669909358025 
1355	 0.146592080593109 
1356	 0.14647863805294 
1357	 0.146403834223747 
1358	 0.146340548992157 
1359	 0.146285340189934 
1360	 0.146254181861877 
1361	 0.146205738186836 
1362	 0.14616434276104 
1363	 0.146095454692841 
1364	 0.14600345492363 
1365	 0.145933270454407 
1366	 0.145848914980888 
1367	 0.145772695541382 
1368	 0.145714029669762 
1369	 0.145664006471634 
1370	 0.145590215921402 
1371	 0.145500168204308 
1372	 0.145394653081894 
1373	 0.145256131887436 
1374	 0.14514085650444 
1375	 0.145076602697372 
1376	 0.145037114620209 
1377	 0.144994497299194 
1378	 0.144892752170563 
1379	 0.144743770360947 
1380	 0.14461824297905 
1381	 0.144469946622849 
1382	 0.14432218670845 
1383	 0.144207060337067 
1384	 0.144033432006836 
1385	 0.143832102417946 
1386	 0.143595561385155 
1387	 0.143340691924095 
1388	 0.143044993281364 
1389	 0.142718240618706 
1390	 0.142335653305054 
1391	 0.14190898835659 
1392	 0.141449689865112 
1393	 0.140924662351608 
1394	 0.140405744314194 
1395	 0.139866530895233 
1396	 0.139311775565147 
1397	 0.138715550303459 
1398	 0.138143748044968 
1399	 0.137572005391121 
1400	 0.136987045407295 
1401	 0.136443719267845 
1402	 0.135971039533615 
1403	 0.135499715805054 
1404	 0.135059103369713 
1405	 0.1346345692873 
1406	 0.134205982089043 
1407	 0.133855998516083 
1408	 0.133556351065636 
1409	 0.133298143744469 
1410	 0.133127689361572 
1411	 0.133016601204872 
1412	 0.132929742336273 
1413	 0.132980167865753 
1414	 0.133130520582199 
1415	 0.13335856795311 
1416	 0.133707225322723 
1417	 0.134078070521355 
1418	 0.134544998407364 
1419	 0.134989678859711 
1420	 0.135481372475624 
1421	 0.135949850082397 
1422	 0.136445268988609 
1423	 0.136886492371559 
1424	 0.137323349714279 
1425	 0.137705340981483 
1426	 0.13804504275322 
1427	 0.138343170285225 
1428	 0.138568356633186 
1429	 0.138820022344589 
1430	 0.139075085520744 
1431	 0.139283180236816 
1432	 0.139490649104118 
1433	 0.139656364917755 
1434	 0.139766737818718 
1435	 0.139842942357063 
1436	 0.139939859509468 
1437	 0.140031084418297 
1438	 0.140096858143806 
1439	 0.140132516622543 
1440	 0.14011438190937 
1441	 0.140101656317711 
1442	 0.140111982822418 
1443	 0.1401137560606 
1444	 0.140117317438126 
1445	 0.140103802084923 
1446	 0.140085086226463 
1447	 0.140037178993225 
1448	 0.140007466077805 
1449	 0.139986008405685 
1450	 0.13996310532093 
1451	 0.139938727021217 
1452	 0.139917373657227 
1453	 0.139911890029907 
1454	 0.139871388673782 
1455	 0.13979534804821 
1456	 0.139763966202736 
1457	 0.139745205640793 
1458	 0.139709040522575 
1459	 0.139703437685966 
1460	 0.139660805463791 
1461	 0.139554813504219 
1462	 0.139508724212646 
1463	 0.139488071203232 
1464	 0.139462471008301 
1465	 0.139473766088486 
1466	 0.139454796910286 
1467	 0.139417439699173 
1468	 0.139380186796188 
1469	 0.139317691326141 
1470	 0.139275208115578 
1471	 0.139242023229599 
1472	 0.139213025569916 
1473	 0.139213636517525 
1474	 0.139190092682838 
1475	 0.139152362942696 
1476	 0.13910748064518 
1477	 0.139073520898819 
1478	 0.139034122228622 
1479	 0.139027878642082 
1480	 0.139029383659363 
1481	 0.139007851481438 
1482	 0.138986483216286 
1483	 0.138936772942543 
1484	 0.138891935348511 
1485	 0.138867139816284 
1486	 0.138810038566589 
1487	 0.138768166303635 
1488	 0.138730272650719 
1489	 0.138677641749382 
1490	 0.138661667704582 
1491	 0.138634040951729 
1492	 0.138579145073891 
1493	 0.138537064194679 
1494	 0.138487860560417 
1495	 0.138443648815155 
1496	 0.1384087651968 
1497	 0.138369709253311 
1498	 0.138326436281204 
1499	 0.138286620378494 
1500	 0.138246387243271 
1501	 0.138209030032158 
1502	 0.138166904449463 
1503	 0.138135939836502 
1504	 0.13813491165638 
1505	 0.138085395097733 
1506	 0.138002425432205 
1507	 0.137961640954018 
1508	 0.13790374994278 
1509	 0.137870222330093 
1510	 0.13789889216423 
1511	 0.13787367939949 
1512	 0.137809216976166 
1513	 0.137775272130966 
1514	 0.137739405035973 
1515	 0.137705773115158 
1516	 0.137695729732513 
1517	 0.137669518589973 
1518	 0.137628078460693 
1519	 0.137588232755661 
1520	 0.137537121772766 
1521	 0.137511864304543 
1522	 0.137510925531387 
1523	 0.137482509016991 
1524	 0.137462139129639 
1525	 0.137424543499947 
1526	 0.137329131364822 
1527	 0.137292087078094 
1528	 0.137304455041885 
1529	 0.137280687689781 
1530	 0.137261047959328 
1531	 0.137248486280441 
1532	 0.137171447277069 
1533	 0.137097284197807 
1534	 0.13705550134182 
1535	 0.136993378400803 
1536	 0.136965602636337 
1537	 0.136963576078415 
1538	 0.136911183595657 
1539	 0.136853605508804 
1540	 0.136812165379524 
1541	 0.136751934885979 
1542	 0.1367217451334 
1543	 0.136710971593857 
1544	 0.136655241250992 
1545	 0.136591017246246 
1546	 0.136537984013557 
1547	 0.136496335268021 
1548	 0.136499747633934 
1549	 0.136523127555847 
1550	 0.136493369936943 
1551	 0.136427402496338 
1552	 0.136361718177795 
1553	 0.136287897825241 
1554	 0.13628189265728 
1555	 0.136302664875984 
1556	 0.136249870061874 
1557	 0.136198043823242 
1558	 0.136159405112267 
1559	 0.136108309030533 
1560	 0.136091724038124 
1561	 0.136097058653831 
1562	 0.136075183749199 
1563	 0.136023312807083 
1564	 0.135977238416672 
1565	 0.135933548212051 
1566	 0.135867655277252 
1567	 0.135818690061569 
1568	 0.135777160525322 
1569	 0.13574580848217 
1570	 0.135704010725021 
1571	 0.135662868618965 
1572	 0.135635361075401 
1573	 0.135611772537231 
1574	 0.135578215122223 
1575	 0.135562226176262 
1576	 0.135523408651352 
1577	 0.135450556874275 
1578	 0.135422632098198 
1579	 0.13540942966938 
1580	 0.135378137230873 
1581	 0.135367974638939 
1582	 0.135328575968742 
1583	 0.13526226580143 
1584	 0.135222852230072 
1585	 0.135180309414864 
1586	 0.135152623057365 
1587	 0.135138317942619 
1588	 0.135111138224602 
1589	 0.135092586278915 
1590	 0.135064944624901 
1591	 0.13502599298954 
1592	 0.135001853108406 
1593	 0.134969234466553 
1594	 0.134962201118469 
1595	 0.13498529791832 
1596	 0.134979009628296 
1597	 0.134982168674469 
1598	 0.134970113635063 
1599	 0.134931191802025 
1600	 0.134902775287628 
1601	 0.134878039360046 
1602	 0.134836912155151 
1603	 0.134782999753952 
1604	 0.134739473462105 
1605	 0.134689748287201 
1606	 0.134653925895691 
1607	 0.134632125496864 
1608	 0.13460011780262 
1609	 0.134572878479958 
1610	 0.134535998106003 
1611	 0.134479284286499 
1612	 0.134448140859604 
1613	 0.134437322616577 
1614	 0.134397104382515 
1615	 0.134348183870316 
1616	 0.134321480989456 
1617	 0.134290248155594 
1618	 0.134249821305275 
1619	 0.134220212697983 
1620	 0.134196698665619 
1621	 0.134161248803139 
1622	 0.134124249219894 
1623	 0.134115189313889 
1624	 0.134089007973671 
1625	 0.134023785591125 
1626	 0.13398514688015 
1627	 0.133970454335213 
1628	 0.133932679891586 
1629	 0.133897006511688 
1630	 0.133855894207954 
1631	 0.133790850639343 
1632	 0.133759260177612 
1633	 0.133734285831451 
1634	 0.133696272969246 
1635	 0.133681923151016 
1636	 0.133652806282043 
1637	 0.133601516485214 
1638	 0.133582875132561 
1639	 0.133571609854698 
1640	 0.133543372154236 
1641	 0.133535176515579 
1642	 0.133509010076523 
1643	 0.133466944098473 
1644	 0.133442565798759 
1645	 0.133412197232246 
1646	 0.133367642760277 
1647	 0.133315622806549 
1648	 0.133289232850075 
1649	 0.133286580443382 
1650	 0.133254483342171 
1651	 0.133208185434341 
1652	 0.133177787065506 
1653	 0.133125767111778 
1654	 0.133092299103737 
1655	 0.133112713694572 
1656	 0.133089512586594 
1657	 0.133024409413338 
1658	 0.133000418543816 
1659	 0.132976323366165 
1660	 0.132964372634888 
1661	 0.132993668317795 
1662	 0.132975563406944 
1663	 0.132912442088127 
1664	 0.13291198015213 
1665	 0.132947489619255 
1666	 0.132964134216309 
1667	 0.132972478866577 
1668	 0.132941767573357 
1669	 0.13285893201828 
1670	 0.132808864116669 
1671	 0.132792040705681 
1672	 0.132789254188538 
1673	 0.132789552211761 
1674	 0.132775738835335 
1675	 0.132738903164864 
1676	 0.132683277130127 
1677	 0.132630780339241 
1678	 0.132602259516716 
1679	 0.132587879896164 
1680	 0.132539629936218 
1681	 0.132482066750526 
1682	 0.132439956068993 
1683	 0.132425487041473 
1684	 0.132470771670341 
1685	 0.132525458931923 
1686	 0.132506459951401 
1687	 0.132428631186485 
1688	 0.132344856858253 
1689	 0.132260859012604 
1690	 0.132226556539536 
1691	 0.132259398698807 
1692	 0.132289335131645 
1693	 0.132280096411705 
1694	 0.132265329360962 
1695	 0.132251128554344 
1696	 0.132209852337837 
1697	 0.132198870182037 
1698	 0.132190734148026 
1699	 0.132136881351471 
1700	 0.132095783948898 
1701	 0.132065236568451 
1702	 0.132050186395645 
1703	 0.13206559419632 
1704	 0.1320910602808 
1705	 0.132077261805534 
1706	 0.132043674588203 
1707	 0.132001474499702 
1708	 0.131939649581909 
1709	 0.131924793124199 
1710	 0.13189896941185 
1711	 0.131852075457573 
1712	 0.131830006837845 
1713	 0.131805494427681 
1714	 0.131783753633499 
1715	 0.131760224699974 
1716	 0.131746098399162 
1717	 0.13171461224556 
1718	 0.131664976477623 
1719	 0.131627097725868 
1720	 0.131582766771317 
1721	 0.131542667746544 
1722	 0.131511211395264 
1723	 0.131533041596413 
1724	 0.131539195775986 
1725	 0.131495550274849 
1726	 0.13147060573101 
1727	 0.131443023681641 
1728	 0.131457194685936 
1729	 0.131424263119698 
1730	 0.131351128220558 
1731	 0.131312623620033 
1732	 0.131234258413315 
1733	 0.131200268864632 
1734	 0.131245210766792 
1735	 0.131221726536751 
1736	 0.131155356764793 
1737	 0.131081908941269 
1738	 0.13103312253952 
1739	 0.130981847643852 
1740	 0.131006151437759 
1741	 0.131007730960846 
1742	 0.130920350551605 
1743	 0.130871340632439 
1744	 0.130829051136971 
1745	 0.130783811211586 
1746	 0.130807459354401 
1747	 0.130801752209663 
1748	 0.13074879348278 
1749	 0.130743131041527 
1750	 0.130737215280533 
1751	 0.130707621574402 
1752	 0.130668252706528 
1753	 0.130597025156021 
1754	 0.130491316318512 
1755	 0.130427435040474 
1756	 0.130429595708847 
1757	 0.130411714315414 
1758	 0.130389109253883 
1759	 0.130339816212654 
1760	 0.130292281508446 
1761	 0.130277544260025 
1762	 0.130245730280876 
1763	 0.130268320441246 
1764	 0.13025975227356 
1765	 0.130192890763283 
1766	 0.130181774497032 
1767	 0.130165621638298 
1768	 0.130149483680725 
1769	 0.130180791020393 
1770	 0.130195483565331 
1771	 0.130169257521629 
1772	 0.130139693617821 
1773	 0.13009686768055 
1774	 0.130047276616096 
1775	 0.13001337647438 
1776	 0.129985392093658 
1777	 0.129959225654602 
1778	 0.129945546388626 
1779	 0.129922136664391 
1780	 0.129886820912361 
1781	 0.129868343472481 
1782	 0.129818290472031 
1783	 0.12979744374752 
1784	 0.129750519990921 
1785	 0.12968684732914 
1786	 0.129683047533035 
1787	 0.12964129447937 
1788	 0.129645109176636 
1789	 0.129686966538429 
1790	 0.129690542817116 
1791	 0.129685521125793 
1792	 0.129632845520973 
1793	 0.129592254757881 
1794	 0.129558995366096 
1795	 0.129556998610497 
1796	 0.129609405994415 
1797	 0.129597902297974 
1798	 0.129565015435219 
1799	 0.129511937499046 
1800	 0.129421755671501 
1801	 0.129370018839836 
1802	 0.129357799887657 
1803	 0.12937730550766 
1804	 0.129396796226501 
1805	 0.129359170794487 
1806	 0.12930865585804 
1807	 0.129279315471649 
1808	 0.129244789481163 
1809	 0.129260510206223 
1810	 0.129284963011742 
1811	 0.129252135753632 
1812	 0.129256635904312 
1813	 0.129290044307709 
1814	 0.129306048154831 
1815	 0.129335567355156 
1816	 0.129333689808846 
1817	 0.129302233457565 
1818	 0.129279777407646 
1819	 0.129233226180077 
1820	 0.129139199852943 
1821	 0.129086270928383 
1822	 0.129078224301338 
1823	 0.12901271879673 
1824	 0.128991574048996 
1825	 0.129032075405121 
1826	 0.129031702876091 
1827	 0.129015669226646 
1828	 0.12897315621376 
1829	 0.128882214426994 
1830	 0.128807097673416 
1831	 0.128470703959465 
1832	 0.128470897674561 
1833	 0.128462389111519 
1834	 0.128519117832184 
1835	 0.128512963652611 
1836	 0.128409698605537 
1837	 0.12838539481163 
1838	 0.128422826528549 
1839	 0.128350615501404 
1840	 0.128280267119408 
1841	 0.128290325403214 
1842	 0.128240555524826 
1843	 0.128163442015648 
1844	 0.128161996603012 
1845	 0.128232568502426 
1846	 0.128259584307671 
1847	 0.128338739275932 
1848	 0.128344759345055 
1849	 0.128268793225288 
1850	 0.128209590911865 
1851	 0.128128498792648 
1852	 0.128065943717957 
1853	 0.128044381737709 
1854	 0.128068000078201 
1855	 0.128078773617744 
1856	 0.128116682171822 
1857	 0.128122910857201 
1858	 0.128162786364555 
1859	 0.128098547458649 
1860	 0.127956554293633 
1861	 0.127873405814171 
1862	 0.127797096967697 
1863	 0.12775182723999 
1864	 0.127766996622086 
1865	 0.12774370610714 
1866	 0.127740070223808 
1867	 0.127733200788498 
1868	 0.12775069475174 
1869	 0.127693355083466 
1870	 0.127652078866959 
1871	 0.127624467015266 
1872	 0.127460524439812 
1873	 0.127339988946915 
1874	 0.127343043684959 
1875	 0.127294465899467 
1876	 0.127163246273994 
1877	 0.127054125070572 
1878	 0.126932248473167 
1879	 0.126847162842751 
1880	 0.126769974827766 
1881	 0.126715764403343 
1882	 0.126694560050964 
1883	 0.126564279198647 
1884	 0.126373291015625 
1885	 0.126246973872185 
1886	 0.126127868890762 
1887	 0.1259705722332 
1888	 0.125799581408501 
1889	 0.125621527433395 
1890	 0.125390976667404 
1891	 0.125104293227196 
1892	 0.124820224940777 
1893	 0.124527812004089 
1894	 0.124303840100765 
1895	 0.124062344431877 
1896	 0.123754642903805 
1897	 0.123532734811306 
1898	 0.123288847506046 
1899	 0.123045101761818 
1900	 0.122821837663651 
1901	 0.122684694826603 
1902	 0.122446037828922 
1903	 0.12215817719698 
1904	 0.121877685189247 
1905	 0.121667832136154 
1906	 0.121547348797321 
1907	 0.121444389224052 
1908	 0.121408745646477 
1909	 0.121388129889965 
1910	 0.121338494122028 
1911	 0.121253803372383 
1912	 0.12120047211647 
1913	 0.121231436729431 
1914	 0.121253252029419 
1915	 0.121220014989376 
1916	 0.121223099529743 
1917	 0.121235266327858 
1918	 0.121220797300339 
1919	 0.121329702436924 
1920	 0.121514640748501 
1921	 0.121615380048752 
1922	 0.121678836643696 
1923	 0.121711947023869 
1924	 0.12173230946064 
1925	 0.121725790202618 
1926	 0.121750488877296 
1927	 0.121827363967896 
1928	 0.121861808001995 
1929	 0.12188196927309 
1930	 0.121877402067184 
1931	 0.121853031218052 
1932	 0.121900908648968 
1933	 0.121918581426144 
1934	 0.121929936110973 
1935	 0.121938899159431 
1936	 0.121964976191521 
1937	 0.121964916586876 
1938	 0.121967919170856 
1939	 0.12196122854948 
1940	 0.121997311711311 
1941	 0.122061736881733 
1942	 0.122073516249657 
1943	 0.122082591056824 
1944	 0.12208579480648 
1945	 0.121992044150829 
1946	 0.121992655098438 
1947	 0.122033141553402 
1948	 0.122142031788826 
1949	 0.122211195528507 
1950	 0.122280403971672 
1951	 0.12228074669838 
1952	 0.122174091637135 
1953	 0.122116059064865 
1954	 0.122137457132339 
1955	 0.122094891965389 
1956	 0.122098386287689 
1957	 0.122138924896717 
1958	 0.122214190661907 
1959	 0.12221821397543 
1960	 0.122211240231991 
1961	 0.12226577848196 
1962	 0.122289411723614 
1963	 0.122329503297806 
1964	 0.122408904135227 
1965	 0.122480481863022 
1966	 0.122465789318085 
1967	 0.122410103678703 
1968	 0.122420318424702 
1969	 0.122466988861561 
1970	 0.122495993971825 
1971	 0.122560985386372 
1972	 0.122599370777607 
1973	 0.122612237930298 
1974	 0.122636556625366 
1975	 0.122663557529449 
1976	 0.122701078653336 
1977	 0.122710138559341 
1978	 0.122709564864635 
1979	 0.122783556580544 
1980	 0.122847720980644 
1981	 0.122892118990421 
1982	 0.122952714562416 
1983	 0.123025827109814 
1984	 0.123063802719116 
1985	 0.123120546340942 
1986	 0.123210817575455 
1987	 0.123341634869576 
1988	 0.123381406068802 
1989	 0.123323135077953 
1990	 0.123302631080151 
1991	 0.123309880495071 
1992	 0.123311638832092 
1993	 0.123388320207596 
1994	 0.123456314206123 
1995	 0.123562626540661 
1996	 0.123598225414753 
1997	 0.123578973114491 
1998	 0.123635053634644 
1999	 0.123687624931335 
2000	 0.123763293027878 
2001	 0.123930402100086 
2002	 0.12407498061657 
2003	 0.124118655920029 
2004	 0.124199710786343 
2005	 0.124239817261696 
2006	 0.124205619096756 
2007	 0.124201372265816 
2008	 0.124188557267189 
2009	 0.124194301664829 
2010	 0.124179378151894 
2011	 0.124210931360722 
2012	 0.1242705732584 
2013	 0.124371208250523 
2014	 0.124485194683075 
2015	 0.124610595405102 
2016	 0.124734908342361 
2017	 0.124760992825031 
2018	 0.124759927392006 
2019	 0.124845027923584 
2020	 0.12490950524807 
2021	 0.125009417533875 
2022	 0.125070437788963 
2023	 0.125080853700638 
2024	 0.125152319669724 
2025	 0.125265195965767 
2026	 0.125343605875969 
2027	 0.125448942184448 
2028	 0.125520527362823 
2029	 0.125586807727814 
2030	 0.125649064779282 
2031	 0.125646680593491 
2032	 0.125672355294228 
2033	 0.125741064548492 
2034	 0.125790700316429 
2035	 0.125823378562927 
2036	 0.125870779156685 
2037	 0.125944465398788 
2038	 0.126026764512062 
2039	 0.126075118780136 
2040	 0.126163154840469 
2041	 0.126222044229507 
2042	 0.126251891255379 
2043	 0.126166567206383 
2044	 0.126173689961433 
2045	 0.126282095909119 
2046	 0.126319453120232 
2047	 0.126349091529846 
2048	 0.126397669315338 
2049	 0.126471966505051 
2050	 0.126481369137764 
2051	 0.126469641923904 
2052	 0.126450031995773 
2053	 0.126305475831032 
2054	 0.126325458288193 
2055	 0.126518324017525 
2056	 0.126579701900482 
2057	 0.126690551638603 
2058	 0.12666691839695 
2059	 0.12661324441433 
2060	 0.126570627093315 
2061	 0.126604199409485 
2062	 0.126705333590508 
2063	 0.126706659793854 
2064	 0.126702487468719 
2065	 0.12673544883728 
2066	 0.126766175031662 
2067	 0.126788735389709 
2068	 0.126845747232437 
2069	 0.126894131302834 
2070	 0.126929640769958 
2071	 0.126959130167961 
2072	 0.127036422491074 
2073	 0.127018079161644 
2074	 0.127017498016357 
2075	 0.127014994621277 
2076	 0.126934766769409 
2077	 0.126965448260307 
2078	 0.127119362354279 
2079	 0.127167046070099 
2080	 0.127150475978851 
2081	 0.127099990844727 
2082	 0.127125114202499 
2083	 0.127116844058037 
2084	 0.127097845077515 
2085	 0.127179607748985 
2086	 0.127179175615311 
2087	 0.12703275680542 
2088	 0.126935169100761 
2089	 0.126791715621948 
2090	 0.126854792237282 
2091	 0.126905649900436 
2092	 0.126783981919289 
2093	 0.126736402511597 
2094	 0.126706346869469 
2095	 0.126709148287773 
2096	 0.126760631799698 
2097	 0.126735359430313 
2098	 0.12671871483326 
2099	 0.12670886516571 
2100	 0.126597553491592 
2101	 0.126579478383064 
2102	 0.12668465077877 
2103	 0.126706585288048 
2104	 0.126709893345833 
2105	 0.126696079969406 
2106	 0.126659795641899 
2107	 0.126596003770828 
2108	 0.126547753810883 
2109	 0.1265579611063 
2110	 0.126498833298683 
2111	 0.126477420330048 
2112	 0.126532733440399 
2113	 0.126492217183113 
2114	 0.126516982913017 
2115	 0.126630410552025 
2116	 0.126686304807663 
2117	 0.126738160848618 
2118	 0.126754283905029 
2119	 0.126704171299934 
2120	 0.12672820687294 
2121	 0.126748412847519 
2122	 0.126790329813957 
2123	 0.126925066113472 
2124	 0.127010881900787 
2125	 0.127093315124512 
2126	 0.127112492918968 
2127	 0.127092406153679 
2128	 0.127177760004997 
2129	 0.127203390002251 
2130	 0.1271643191576 
2131	 0.127167835831642 
2132	 0.127111285924911 
2133	 0.127075761556625 
2134	 0.127055704593658 
2135	 0.126979142427444 
2136	 0.126803815364838 
2137	 0.126783266663551 
2138	 0.126838535070419 
2139	 0.126837402582169 
2140	 0.126944944262505 
2141	 0.126955807209015 
2142	 0.126814842224121 
2143	 0.126741856336594 
2144	 0.126697182655334 
2145	 0.12668065726757 
2146	 0.126578658819199 
2147	 0.126505255699158 
2148	 0.12634015083313 
2149	 0.126142308115959 
2150	 0.126094251871109 
2151	 0.126039937138557 
2152	 0.125900194048882 
2153	 0.125778272747993 
2154	 0.12561322748661 
2155	 0.125338479876518 
2156	 0.125067085027695 
2157	 0.124804608523846 
2158	 0.124552749097347 
2159	 0.124274201691151 
2160	 0.123951904475689 
2161	 0.123570792376995 
2162	 0.123291984200478 
2163	 0.123010978102684 
2164	 0.122778624296188 
2165	 0.122555084526539 
2166	 0.122287802398205 
2167	 0.121790930628777 
2168	 0.121283426880836 
2169	 0.120982825756073 
2170	 0.120644271373749 
2171	 0.120228946208954 
2172	 0.119788430631161 
2173	 0.119290396571159 
2174	 0.118619166314602 
2175	 0.118050642311573 
2176	 0.11750940233469 
2177	 0.11698979139328 
2178	 0.116509430110455 
2179	 0.115957744419575 
2180	 0.115457899868488 
2181	 0.114842280745506 
2182	 0.114043332636356 
2183	 0.113347090780735 
2184	 0.112627394497395 
2185	 0.111965402960777 
2186	 0.111343994736671 
2187	 0.110799297690392 
2188	 0.11023510992527 
2189	 0.109599396586418 
2190	 0.108976505696774 
2191	 0.108397275209427 
2192	 0.107866033911705 
2193	 0.107382148504257 
2194	 0.106946505606174 
2195	 0.106654427945614 
2196	 0.10640799254179 
2197	 0.106259852647781 
2198	 0.106099262833595 
2199	 0.105975896120071 
2200	 0.105886496603489 
2201	 0.105815283954144 
2202	 0.105858445167542 
2203	 0.105998016893864 
2204	 0.106145456433296 
2205	 0.106375120580196 
2206	 0.106565319001675 
2207	 0.106786049902439 
2208	 0.107002019882202 
2209	 0.107143044471741 
2210	 0.10739466547966 
2211	 0.107743538916111 
2212	 0.108010105788708 
2213	 0.108318224549294 
2214	 0.108763143420219 
2215	 0.109058924019337 
2216	 0.109375186264515 
2217	 0.109769105911255 
2218	 0.110065661370754 
2219	 0.110378988087177 
2220	 0.110816121101379 
2221	 0.111183747649193 
2222	 0.111478120088577 
2223	 0.111842431128025 
2224	 0.112225867807865 
2225	 0.112516678869724 
2226	 0.112845964729786 
2227	 0.113114334642887 
2228	 0.11324118077755 
2229	 0.113459371030331 
2230	 0.113729499280453 
2231	 0.113941490650177 
2232	 0.114146329462528 
2233	 0.114325389266014 
2234	 0.114443905651569 
2235	 0.114600904285908 
2236	 0.114787496626377 
2237	 0.114925481379032 
2238	 0.115053072571754 
2239	 0.11517920345068 
2240	 0.115253016352654 
2241	 0.115383431315422 
2242	 0.11547926068306 
2243	 0.115621335804462 
2244	 0.115784853696823 
2245	 0.115794375538826 
2246	 0.115810200572014 
2247	 0.115908399224281 
2248	 0.115988880395889 
2249	 0.116078369319439 
2250	 0.116241097450256 
2251	 0.116464391350746 
2252	 0.116590440273285 
2253	 0.116665959358215 
2254	 0.116712257266045 
2255	 0.116635397076607 
2256	 0.116767555475235 
2257	 0.117027267813683 
2258	 0.117212146520615 
2259	 0.117487698793411 
2260	 0.117664121091366 
2261	 0.117699258029461 
2262	 0.117848329246044 
2263	 0.118133008480072 
2264	 0.118236601352692 
2265	 0.118209548294544 
2266	 0.118278406560421 
2267	 0.118312209844589 
2268	 0.118351630866528 
2269	 0.11845887452364 
2270	 0.118566252291203 
2271	 0.118677087128162 
2272	 0.11871375888586 
2273	 0.118686385452747 
2274	 0.118637427687645 
2275	 0.118538863956928 
2276	 0.118600413203239 
2277	 0.118945457041264 
2278	 0.119146667420864 
2279	 0.119092687964439 
2280	 0.118972033262253 
2281	 0.118827767670155 
2282	 0.118761070072651 
2283	 0.11882883310318 
2284	 0.11884581297636 
2285	 0.11875706166029 
2286	 0.118670180439949 
2287	 0.11855610460043 
2288	 0.11851891130209 
2289	 0.118521824479103 
2290	 0.118429571390152 
2291	 0.118373334407806 
2292	 0.118393190205097 
2293	 0.118263810873032 
2294	 0.118004709482193 
2295	 0.117910794913769 
2296	 0.117872498929501 
2297	 0.117685914039612 
2298	 0.117505490779877 
2299	 0.117279402911663 
2300	 0.116881348192692 
2301	 0.116623997688293 
2302	 0.116475239396095 
2303	 0.116331942379475 
2304	 0.116170592606068 
2305	 0.115958102047443 
2306	 0.115838140249252 
2307	 0.115627199411392 
2308	 0.11528879404068 
2309	 0.115029118955135 
2310	 0.114688917994499 
2311	 0.114488765597343 
2312	 0.114560410380363 
2313	 0.114362746477127 
2314	 0.114019051194191 
2315	 0.113778851926327 
2316	 0.113429218530655 
2317	 0.113051690161228 
2318	 0.112917646765709 
2319	 0.112849682569504 
2320	 0.112645544111729 
2321	 0.112393498420715 
2322	 0.112073719501495 
2323	 0.111882939934731 
2324	 0.111736856400967 
2325	 0.111462749540806 
2326	 0.111227221786976 
2327	 0.110945247113705 
2328	 0.110554434359074 
2329	 0.110253654420376 
2330	 0.110028132796288 
2331	 0.109788566827774 
2332	 0.109553411602974 
2333	 0.109279796481133 
2334	 0.109036594629288 
2335	 0.108857661485672 
2336	 0.108640186488628 
2337	 0.108381614089012 
2338	 0.108178526163101 
2339	 0.107958890497684 
2340	 0.107731647789478 
2341	 0.107643708586693 
2342	 0.107526391744614 
2343	 0.10736621171236 
2344	 0.107363060116768 
2345	 0.107476323843002 
2346	 0.107461243867874 
2347	 0.107314586639404 
2348	 0.107212759554386 
2349	 0.107104085385799 
2350	 0.107118517160416 
2351	 0.107296206057072 
2352	 0.107487231492996 
2353	 0.107806332409382 
2354	 0.107863053679466 
2355	 0.107837021350861 
2356	 0.107862688601017 
2357	 0.107740014791489 
2358	 0.107730895280838 
2359	 0.107843153178692 
2360	 0.107903592288494 
2361	 0.107818707823753 
2362	 0.108037568628788 
2363	 0.108503296971321 
2364	 0.108728535473347 
2365	 0.109031870961189 
2366	 0.109227299690247 
2367	 0.109272830188274 
2368	 0.109304651618004 
2369	 0.1093670129776 
2370	 0.109357982873917 
2371	 0.109100960195065 
2372	 0.109106749296188 
2373	 0.109326757490635 
2374	 0.109282411634922 
2375	 0.109193682670593 
2376	 0.109153166413307 
2377	 0.108840316534042 
2378	 0.108928300440311 
2379	 0.109562516212463 
2380	 0.109497889876366 
2381	 0.108984984457493 
2382	 0.109070226550102 
2383	 0.109135553240776 
2384	 0.109141200780869 
2385	 0.109755866229534 
2386	 0.109897628426552 
2387	 0.10944040864706 
2388	 0.109258733689785 
2389	 0.109167091548443 
2390	 0.109110951423645 
2391	 0.109124816954136 
2392	 0.108899489045143 
2393	 0.108494684100151 
2394	 0.108392588794231 
2395	 0.108273133635521 
2396	 0.108258008956909 
2397	 0.108573108911514 
2398	 0.108777016401291 
2399	 0.108945578336716 
2400	 0.108874790370464 
2401	 0.108836472034454 
2402	 0.108684010803699 
2403	 0.108060270547867 
2404	 0.107893109321594 
2405	 0.107994809746742 
2406	 0.107959352433681 
2407	 0.108113490045071 
2408	 0.108020558953285 
2409	 0.107750877737999 
2410	 0.107526265084744 
2411	 0.107261590659618 
2412	 0.106899082660675 
2413	 0.10642858594656 
2414	 0.10607036203146 
2415	 0.105620995163918 
2416	 0.105298385024071 
2417	 0.104927264153957 
2418	 0.105017766356468 
2419	 0.105610884726048 
2420	 0.105667643249035 
2421	 0.105940259993076 
2422	 0.105755373835564 
2423	 0.104798547923565 
2424	 0.104433432221413 
2425	 0.104328505694866 
2426	 0.104071468114853 
2427	 0.103821806609631 
2428	 0.103650741279125 
2429	 0.103434093296528 
2430	 0.103198990225792 
2431	 0.102956771850586 
2432	 0.103021115064621 
2433	 0.103330530226231 
2434	 0.103352032601833 
2435	 0.103506222367287 
2436	 0.103470250964165 
2437	 0.103053241968155 
2438	 0.102828957140446 
2439	 0.102791652083397 
2440	 0.102685585618019 
2441	 0.102302893996239 
2442	 0.102349571883678 
2443	 0.102798633277416 
2444	 0.102799735963345 
2445	 0.102868877351284 
2446	 0.102618284523487 
2447	 0.101818390190601 
2448	 0.101764015853405 
2449	 0.101998813450336 
2450	 0.102010980248451 
2451	 0.102231830358505 
2452	 0.102291412651539 
2453	 0.102123819291592 
2454	 0.101787440478802 
2455	 0.102057918906212 
2456	 0.102343916893005 
2457	 0.102445557713509 
2458	 0.103351160883904 
2459	 0.103911623358727 
2460	 0.103283770382404 
2461	 0.102553598582745 
2462	 0.101970121264458 
2463	 0.101382523775101 
2464	 0.101989522576332 
2465	 0.102380275726318 
2466	 0.102797284722328 
2467	 0.103057704865932 
2468	 0.103360548615456 
2469	 0.10346182435751 
2470	 0.103032015264034 
2471	 0.103037141263485 
2472	 0.103505745530128 
2473	 0.103477410972118 
2474	 0.103263154625893 
2475	 0.103256203234196 
2476	 0.102749891579151 
2477	 0.102668598294258 
2478	 0.103406257927418 
2479	 0.103577725589275 
2480	 0.103178165853024 
2481	 0.103465102612972 
2482	 0.104255355894566 
2483	 0.104429215192795 
2484	 0.104753002524376 
2485	 0.104915432631969 
2486	 0.10434927046299 
2487	 0.104088440537453 
2488	 0.10422270745039 
2489	 0.104072123765945 
2490	 0.10336534678936 
2491	 0.103363409638405 
2492	 0.10406382381916 
2493	 0.103934653103352 
2494	 0.103510990738869 
2495	 0.103564664721489 
2496	 0.103274673223495 
2497	 0.103363946080208 
2498	 0.104292035102844 
2499	 0.104629181325436 
2500	 0.104600593447685 
