
Text conversion of header file \A_MEDIDAS\PROJETOS\BRASIL\BLOCO GAVIAO\JACOBINA\CANIF27\sco\CANIF27_026.10_00004.asd.ref
 -------------------------------------------------------------
                                                                                                                                                            
The instrument number was  16586/1
New ASD spectrum file: Program version = 6.00 file version = 1.00
Spectrum saved: 10/16/2018 at 10:13:03
VNIR integration time : 34
VNIR channel 1 wavelength = 350 wavelength step = 1
There were 50 samples per data value
xmin = 350 xmax= 2500
ymin= 0 ymax= 1.25
The instrument digitizes spectral values to 16 bits
SWIR1 gain was 214 offset was 2097
SWIR2 gain was 513 offset was 2267
Join between VNIR and SWIR1 was 1000 nm
Join between SWIR1 and SWIR2 was 1830 nm
Absolute Reflectance is Enabled
The Absolute Reflectance File is abs165861.ref
VNIR dark signal subtracted
50 dark measurements taken Tue Oct 16 09:52:54 2018
DCC value was 0
Data is compared to a white reference:
60 white reference measurements taken Tue Oct 16 09:53:02 2018
There was no foreoptic attached
Spectrum file is reflectance data
GPS-Latitude is S0
GPS-Longitude is E0
GPS-Altitude is 0
GPS-UTC is Wed Dec 31 17:00:00 1969

Smart Detector
Serial#  0
Signal (A)  0.000E00
Dark (A)  0.000E00
Ref (A)  0.000E00
Status  0 - Uninitialized
Gain  E-4
Averaging  0
Temp (C)  0.0
Humid (%)  0.0

Reflectance Absolute
Wavelength	CANIF27_26.10_00004.asd.ref
350	 0.230196267366409 
351	 0.227199345827103 
352	 0.22906856238842 
353	 0.231365785002708 
354	 0.231798201799393 
355	 0.240071803331375 
356	 0.243399456143379 
357	 0.239591240882874 
358	 0.232356578111649 
359	 0.232664033770561 
360	 0.240812286734581 
361	 0.248052850365639 
362	 0.24274480342865 
363	 0.238012462854385 
364	 0.239180624485016 
365	 0.245460540056229 
366	 0.250016629695892 
367	 0.244437947869301 
368	 0.239140272140503 
369	 0.242609679698944 
370	 0.245086267590523 
371	 0.246593803167343 
372	 0.247483462095261 
373	 0.248001828789711 
374	 0.246065557003021 
375	 0.245953857898712 
376	 0.248079195618629 
377	 0.248628169298172 
378	 0.248635783791542 
379	 0.248716607689857 
380	 0.2491275370121 
381	 0.249499067664146 
382	 0.249273359775543 
383	 0.249234616756439 
384	 0.25035285949707 
385	 0.251713246107101 
386	 0.253504931926727 
387	 0.255294531583786 
388	 0.256047248840332 
389	 0.254567623138428 
390	 0.254101812839508 
391	 0.256036400794983 
392	 0.256766349077225 
393	 0.256863296031952 
394	 0.256766855716705 
395	 0.25690945982933 
396	 0.257274866104126 
397	 0.258721143007278 
398	 0.260337978601456 
399	 0.260138541460037 
400	 0.260383993387222 
401	 0.260485678911209 
402	 0.260090380907059 
403	 0.259976893663406 
404	 0.259533315896988 
405	 0.259677588939667 
406	 0.260882049798965 
407	 0.260111927986145 
408	 0.260082513093948 
409	 0.260597199201584 
410	 0.25968074798584 
411	 0.259711503982544 
412	 0.259796917438507 
413	 0.259665757417679 
414	 0.260726779699326 
415	 0.260749816894531 
416	 0.260026544332504 
417	 0.25941726565361 
418	 0.258991748094559 
419	 0.258885949850082 
420	 0.258892029523849 
421	 0.258689045906067 
422	 0.259066104888916 
423	 0.259413510560989 
424	 0.259303718805313 
425	 0.258791387081146 
426	 0.258657157421112 
427	 0.258560597896576 
428	 0.258214622735977 
429	 0.258725583553314 
430	 0.258906900882721 
431	 0.258611083030701 
432	 0.258356332778931 
433	 0.258019149303436 
434	 0.25822976231575 
435	 0.258968383073807 
436	 0.259200543165207 
437	 0.258824348449707 
438	 0.258727371692657 
439	 0.259520441293716 
440	 0.259830683469772 
441	 0.260104537010193 
442	 0.260361820459366 
443	 0.260375291109085 
444	 0.2606121301651 
445	 0.260925441980362 
446	 0.261219620704651 
447	 0.2616166472435 
448	 0.262064248323441 
449	 0.262297302484512 
450	 0.262209862470627 
451	 0.262541264295578 
452	 0.262953549623489 
453	 0.263161092996597 
454	 0.263017117977142 
455	 0.263248234987259 
456	 0.263577818870544 
457	 0.263780236244202 
458	 0.264019191265106 
459	 0.264187306165695 
460	 0.264394551515579 
461	 0.264744997024536 
462	 0.264988601207733 
463	 0.265098005533218 
464	 0.265208899974823 
465	 0.265561074018478 
466	 0.265850841999054 
467	 0.265964061021805 
468	 0.265977114439011 
469	 0.266325503587723 
470	 0.266623556613922 
471	 0.266809612512589 
472	 0.266970336437225 
473	 0.267248064279556 
474	 0.267527520656586 
475	 0.267768710851669 
476	 0.268031597137451 
477	 0.268335610628128 
478	 0.268749475479126 
479	 0.269226789474487 
480	 0.269348114728928 
481	 0.269763320684433 
482	 0.27029487490654 
483	 0.270456433296204 
484	 0.270826697349548 
485	 0.271297127008438 
486	 0.271702229976654 
487	 0.271890461444855 
488	 0.272367179393768 
489	 0.272807359695435 
490	 0.272931784391403 
491	 0.273383110761642 
492	 0.273854851722717 
493	 0.274208009243011 
494	 0.274435609579086 
495	 0.274662017822266 
496	 0.274841666221619 
497	 0.274997919797897 
498	 0.275311559438705 
499	 0.275578081607819 
500	 0.275766134262085 
501	 0.275914222002029 
502	 0.276106327772141 
503	 0.276257425546646 
504	 0.276385188102722 
505	 0.276582539081573 
506	 0.276710003614426 
507	 0.276846408843994 
508	 0.277003228664398 
509	 0.276950031518936 
510	 0.277046054601669 
511	 0.277224808931351 
512	 0.27729806303978 
513	 0.277372628450394 
514	 0.277447730302811 
515	 0.277495950460434 
516	 0.277473241090775 
517	 0.277487277984619 
518	 0.277464687824249 
519	 0.277365505695343 
520	 0.277343064546585 
521	 0.277250289916992 
522	 0.277145504951477 
523	 0.277149558067322 
524	 0.277085423469543 
525	 0.276956766843796 
526	 0.27679654955864 
527	 0.276650995016098 
528	 0.276502400636673 
529	 0.276329219341278 
530	 0.276123702526093 
531	 0.275927603244781 
532	 0.275720775127411 
533	 0.275496304035187 
534	 0.275262743234634 
535	 0.275091022253037 
536	 0.274906665086746 
537	 0.274643063545227 
538	 0.274267762899399 
539	 0.27398419380188 
540	 0.273737251758575 
541	 0.273438364267349 
542	 0.273266851902008 
543	 0.273021280765533 
544	 0.272698611021042 
545	 0.272458732128143 
546	 0.272106200456619 
547	 0.271737962961197 
548	 0.271418213844299 
549	 0.271032452583313 
550	 0.270620048046112 
551	 0.270205736160278 
552	 0.269800901412964 
553	 0.269366085529327 
554	 0.268910795450211 
555	 0.268430382013321 
556	 0.26790389418602 
557	 0.267497807741165 
558	 0.267133057117462 
559	 0.266732156276703 
560	 0.266386866569519 
561	 0.266047269105911 
562	 0.265632122755051 
563	 0.265085279941559 
564	 0.264657348394394 
565	 0.264266073703766 
566	 0.263873636722565 
567	 0.26356229186058 
568	 0.263120621442795 
569	 0.26255589723587 
570	 0.261923789978027 
571	 0.261167764663696 
572	 0.260539889335632 
573	 0.260088711977005 
574	 0.259716242551804 
575	 0.259483873844147 
576	 0.259268403053284 
577	 0.258985817432404 
578	 0.258657217025757 
579	 0.258348673582077 
580	 0.257994741201401 
581	 0.257523834705353 
582	 0.257046312093735 
583	 0.256582975387573 
584	 0.256109267473221 
585	 0.25557091832161 
586	 0.25512021780014 
587	 0.254742354154587 
588	 0.254440069198608 
589	 0.25435882806778 
590	 0.2541863322258 
591	 0.253944933414459 
592	 0.253736317157745 
593	 0.253250122070313 
594	 0.252783596515656 
595	 0.252495735883713 
596	 0.252336800098419 
597	 0.251950025558472 
598	 0.251484870910645 
599	 0.251076698303223 
600	 0.250483632087708 
601	 0.249939009547234 
602	 0.249482244253159 
603	 0.249047160148621 
604	 0.248602539300919 
605	 0.248258590698242 
606	 0.248064249753952 
607	 0.247969374060631 
608	 0.247834280133247 
609	 0.24762399494648 
610	 0.247363775968552 
611	 0.247151836752892 
612	 0.2469632178545 
613	 0.246732413768768 
614	 0.246394798159599 
615	 0.246095240116119 
616	 0.245960488915443 
617	 0.245948895812035 
618	 0.245771393179893 
619	 0.245615944266319 
620	 0.245492115616798 
621	 0.24538354575634 
622	 0.245360314846039 
623	 0.245368376374245 
624	 0.245343059301376 
625	 0.24523900449276 
626	 0.245260775089264 
627	 0.245338708162308 
628	 0.245423212647438 
629	 0.245575606822968 
630	 0.24563205242157 
631	 0.245668143033981 
632	 0.245807409286499 
633	 0.246026784181595 
634	 0.246215283870697 
635	 0.246348634362221 
636	 0.246486783027649 
637	 0.246786013245583 
638	 0.247102215886116 
639	 0.247316107153893 
640	 0.247444525361061 
641	 0.2475595921278 
642	 0.24773545563221 
643	 0.247971266508102 
644	 0.247951149940491 
645	 0.247946873307228 
646	 0.248053476214409 
647	 0.248203381896019 
648	 0.248446971178055 
649	 0.248760864138603 
650	 0.249122440814972 
651	 0.249546274542809 
652	 0.249841570854187 
653	 0.250135630369186 
654	 0.250576496124268 
655	 0.250862628221512 
656	 0.251153618097305 
657	 0.251494079828262 
658	 0.251832872629166 
659	 0.252311795949936 
660	 0.252838462591171 
661	 0.253330379724503 
662	 0.253787159919739 
663	 0.254319101572037 
664	 0.254869014024735 
665	 0.2553631067276 
666	 0.255926042795181 
667	 0.256445914506912 
668	 0.25694015622139 
669	 0.257516711950302 
670	 0.258082151412964 
671	 0.258610516786575 
672	 0.25911757349968 
673	 0.2596735060215 
674	 0.260215252637863 
675	 0.260708838701248 
676	 0.261118948459625 
677	 0.261370152235031 
678	 0.261540651321411 
679	 0.261693120002747 
680	 0.261864602565765 
681	 0.262007564306259 
682	 0.262052804231644 
683	 0.262017071247101 
684	 0.262036830186844 
685	 0.262269109487534 
686	 0.262688189744949 
687	 0.263196408748627 
688	 0.263675153255463 
689	 0.264207482337952 
690	 0.264713793992996 
691	 0.265069603919983 
692	 0.265487045049667 
693	 0.265923827886581 
694	 0.2663694024086 
695	 0.266879469156265 
696	 0.267525345087051 
697	 0.268282175064087 
698	 0.269081592559814 
699	 0.269818544387817 
700	 0.270455151796341 
701	 0.271141231060028 
702	 0.272020101547241 
703	 0.272739499807358 
704	 0.273429989814758 
705	 0.274119108915329 
706	 0.274727314710617 
707	 0.275404334068298 
708	 0.276055812835693 
709	 0.276642918586731 
710	 0.277303695678711 
711	 0.277984946966171 
712	 0.278606325387955 
713	 0.279132455587387 
714	 0.279725760221481 
715	 0.280341386795044 
716	 0.280932664871216 
717	 0.281468659639359 
718	 0.282040357589722 
719	 0.282520592212677 
720	 0.282946079969406 
721	 0.283571571111679 
722	 0.284157872200012 
723	 0.284705251455307 
724	 0.285227924585342 
725	 0.285629957914352 
726	 0.286050051450729 
727	 0.286514043807983 
728	 0.286995947360992 
729	 0.287473082542419 
730	 0.287886947393417 
731	 0.288244307041168 
732	 0.288603961467743 
733	 0.288971662521362 
734	 0.289355397224426 
735	 0.289740055799484 
736	 0.290077298879623 
737	 0.290555357933044 
738	 0.290999919176102 
739	 0.291260182857513 
740	 0.291518330574036 
741	 0.291787773370743 
742	 0.292084664106369 
743	 0.292416363954544 
744	 0.292782753705978 
745	 0.29308232665062 
746	 0.293330103158951 
747	 0.293632566928864 
748	 0.293900668621063 
749	 0.294126391410828 
750	 0.294358611106873 
751	 0.29471081495285 
752	 0.295021444559097 
753	 0.295323312282562 
754	 0.295636236667633 
755	 0.295787870883942 
756	 0.295987099409103 
757	 0.296264678239822 
758	 0.296551704406738 
759	 0.296714067459106 
760	 0.296892434358597 
761	 0.297076463699341 
762	 0.297163814306259 
763	 0.297434657812119 
764	 0.297682136297226 
765	 0.2978136241436 
766	 0.297964036464691 
767	 0.298084259033203 
768	 0.298199266195297 
769	 0.298337876796722 
770	 0.29850435256958 
771	 0.298721760511398 
772	 0.298885762691498 
773	 0.298919349908829 
774	 0.299005568027496 
775	 0.299138844013214 
776	 0.299274504184723 
777	 0.299361616373062 
778	 0.29945895075798 
779	 0.299562692642212 
780	 0.299646288156509 
781	 0.299673914909363 
782	 0.299693375825882 
783	 0.299765795469284 
784	 0.299895644187927 
785	 0.300005704164505 
786	 0.300061076879501 
787	 0.300052642822266 
788	 0.300019979476929 
789	 0.300098568201065 
790	 0.300127148628235 
791	 0.30008265376091 
792	 0.300037533044815 
793	 0.300227135419846 
794	 0.300381571054459 
795	 0.300383269786835 
796	 0.300258964300156 
797	 0.300259113311768 
798	 0.300295174121857 
799	 0.300338417291641 
800	 0.300417006015778 
801	 0.300425618886948 
802	 0.300426185131073 
803	 0.300451695919037 
804	 0.300474137067795 
805	 0.300530433654785 
806	 0.300549209117889 
807	 0.300545066595078 
808	 0.300717115402222 
809	 0.300702810287476 
810	 0.300646126270294 
811	 0.300707578659058 
812	 0.300718873739243 
813	 0.300737738609314 
814	 0.300744026899338 
815	 0.300741285085678 
816	 0.300929963588715 
817	 0.300944328308105 
818	 0.300865411758423 
819	 0.300934821367264 
820	 0.300920575857162 
821	 0.300910621881485 
822	 0.300949513912201 
823	 0.30102065205574 
824	 0.300998717546463 
825	 0.300960123538971 
826	 0.300934135913849 
827	 0.300891071557999 
828	 0.30087599158287 
829	 0.300913423299789 
830	 0.300961256027222 
831	 0.30091404914856 
832	 0.30091255903244 
833	 0.300952285528183 
834	 0.300972193479538 
835	 0.300875127315521 
836	 0.300894320011139 
837	 0.300918251276016 
838	 0.30086475610733 
839	 0.300883412361145 
840	 0.30096846818924 
841	 0.30102726817131 
842	 0.300990581512451 
843	 0.300924926996231 
844	 0.300803869962692 
845	 0.300741016864777 
846	 0.30081433057785 
847	 0.300847113132477 
848	 0.300830364227295 
849	 0.300805449485779 
850	 0.30081832408905 
851	 0.300843507051468 
852	 0.300721257925034 
853	 0.300642609596252 
854	 0.300843417644501 
855	 0.300934851169586 
856	 0.300928950309753 
857	 0.300862789154053 
858	 0.300785511732101 
859	 0.300736397504807 
860	 0.30073556303978 
861	 0.300752460956573 
862	 0.300738960504532 
863	 0.300757706165314 
864	 0.300706773996353 
865	 0.300661474466324 
866	 0.300777643918991 
867	 0.300756514072418 
868	 0.300781428813934 
869	 0.300843685865402 
870	 0.300771147012711 
871	 0.300678879022598 
872	 0.300690442323685 
873	 0.300781726837158 
874	 0.300809741020203 
875	 0.300808727741241 
876	 0.300798386335373 
877	 0.300802141427994 
878	 0.300838351249695 
879	 0.300875067710876 
880	 0.300850391387939 
881	 0.300802677869797 
882	 0.300851434469223 
883	 0.300937801599503 
884	 0.300945997238159 
885	 0.300921201705933 
886	 0.301037043333054 
887	 0.301086395978928 
888	 0.301086694002151 
889	 0.301093518733978 
890	 0.30115219950676 
891	 0.301150292158127 
892	 0.301105499267578 
893	 0.301097244024277 
894	 0.301209390163422 
895	 0.301218330860138 
896	 0.301270097494125 
897	 0.301372170448303 
898	 0.301379650831223 
899	 0.30130460858345 
900	 0.3012934923172 
901	 0.301329880952835 
902	 0.301281750202179 
903	 0.301335602998734 
904	 0.301407068967819 
905	 0.301458269357681 
906	 0.30150294303894 
907	 0.301502257585526 
908	 0.301436543464661 
909	 0.301348090171814 
910	 0.301307767629623 
911	 0.3012835085392 
912	 0.301454484462738 
913	 0.301663011312485 
914	 0.301646798849106 
915	 0.301710873842239 
916	 0.301764845848084 
917	 0.301787942647934 
918	 0.301798701286316 
919	 0.301784217357636 
920	 0.301732957363129 
921	 0.301768720149994 
922	 0.301961362361908 
923	 0.302015900611877 
924	 0.302004784345627 
925	 0.302031636238098 
926	 0.302144587039948 
927	 0.302204579114914 
928	 0.302311450242996 
929	 0.302398204803467 
930	 0.302402079105377 
931	 0.302375704050064 
932	 0.302336663007736 
933	 0.302288025617599 
934	 0.302301198244095 
935	 0.302532315254211 
936	 0.302617788314819 
937	 0.3026123046875 
938	 0.302601367235184 
939	 0.302605330944061 
940	 0.302764683961868 
941	 0.302843004465103 
942	 0.302755415439606 
943	 0.302625507116318 
944	 0.302562713623047 
945	 0.302566826343536 
946	 0.302578806877136 
947	 0.302517473697662 
948	 0.302356690168381 
949	 0.302083939313889 
950	 0.30184543132782 
951	 0.301730781793594 
952	 0.301390111446381 
953	 0.301104545593262 
954	 0.300778120756149 
955	 0.300342231988907 
956	 0.300067782402039 
957	 0.29984724521637 
958	 0.299624562263489 
959	 0.299413830041885 
960	 0.299304455518723 
961	 0.299181431531906 
962	 0.299135327339172 
963	 0.299168974161148 
964	 0.299202710390091 
965	 0.299442321062088 
966	 0.299746036529541 
967	 0.300073504447937 
968	 0.300487220287323 
969	 0.301113128662109 
970	 0.30149519443512 
971	 0.301680147647858 
972	 0.301922529935837 
973	 0.302371978759766 
974	 0.302651315927505 
975	 0.302808284759521 
976	 0.302980929613113 
977	 0.303224593400955 
978	 0.303318560123444 
979	 0.303418815135956 
980	 0.303613185882568 
981	 0.303851634263992 
982	 0.304084330797195 
983	 0.304090976715088 
984	 0.30401623249054 
985	 0.304078578948975 
986	 0.304017812013626 
987	 0.303938180208206 
988	 0.303954124450684 
989	 0.304052352905273 
990	 0.304015010595322 
991	 0.304112643003464 
992	 0.304197520017624 
993	 0.304208040237427 
994	 0.304235577583313 
995	 0.304242759943008 
996	 0.3041912317276 
997	 0.304103553295136 
998	 0.304056316614151 
999	 0.304181128740311 
1000	 0.304215580224991 
1001	 0.290621846914291 
1002	 0.290610998868942 
1003	 0.290579259395599 
1004	 0.29044896364212 
1005	 0.290499448776245 
1006	 0.290487438440323 
1007	 0.290524303913116 
1008	 0.290607690811157 
1009	 0.290569305419922 
1010	 0.290411919355392 
1011	 0.29033237695694 
1012	 0.290212213993073 
1013	 0.290148258209229 
1014	 0.290113061666489 
1015	 0.290133327245712 
1016	 0.29023739695549 
1017	 0.290251463651657 
1018	 0.290281027555466 
1019	 0.290320456027985 
1020	 0.290297329425812 
1021	 0.290224075317383 
1022	 0.290185034275055 
1023	 0.290166050195694 
1024	 0.290093064308167 
1025	 0.289968073368073 
1026	 0.289892494678497 
1027	 0.289809316396713 
1028	 0.289714962244034 
1029	 0.289592236280441 
1030	 0.289591014385223 
1031	 0.289547711610794 
1032	 0.28939750790596 
1033	 0.289382457733154 
1034	 0.289336919784546 
1035	 0.289262384176254 
1036	 0.289327919483185 
1037	 0.289392083883286 
1038	 0.289380103349686 
1039	 0.289329200983047 
1040	 0.289255827665329 
1041	 0.289152145385742 
1042	 0.288950562477112 
1043	 0.288829177618027 
1044	 0.288729310035706 
1045	 0.288631856441498 
1046	 0.288578033447266 
1047	 0.288544774055481 
1048	 0.288472175598145 
1049	 0.288406401872635 
1050	 0.288358241319656 
1051	 0.288283228874207 
1052	 0.28822448849678 
1053	 0.288129955530167 
1054	 0.288073867559433 
1055	 0.288054078817368 
1056	 0.287991523742676 
1057	 0.287919074296951 
1058	 0.287866771221161 
1059	 0.28777602314949 
1060	 0.287628352642059 
1061	 0.287521034479141 
1062	 0.287464946508408 
1063	 0.287375003099442 
1064	 0.287254303693771 
1065	 0.287067234516144 
1066	 0.286838203668594 
1067	 0.286744564771652 
1068	 0.286655187606812 
1069	 0.28655943274498 
1070	 0.286573678255081 
1071	 0.286514848470688 
1072	 0.286401242017746 
1073	 0.286246687173843 
1074	 0.286158353090286 
1075	 0.286033093929291 
1076	 0.285922884941101 
1077	 0.285855829715729 
1078	 0.285803854465485 
1079	 0.285710871219635 
1080	 0.285579741001129 
1081	 0.285492271184921 
1082	 0.285403847694397 
1083	 0.285299599170685 
1084	 0.285213798284531 
1085	 0.285140633583069 
1086	 0.285067558288574 
1087	 0.28495779633522 
1088	 0.284959405660629 
1089	 0.285017848014832 
1090	 0.284930020570755 
1091	 0.284841805696487 
1092	 0.284720331430435 
1093	 0.284518241882324 
1094	 0.284405082464218 
1095	 0.284376919269562 
1096	 0.284326910972595 
1097	 0.284285604953766 
1098	 0.284279763698578 
1099	 0.284237712621689 
1100	 0.284225970506668 
1101	 0.284166038036346 
1102	 0.284080177545547 
1103	 0.283944815397263 
1104	 0.283885985612869 
1105	 0.283797025680542 
1106	 0.283742964267731 
1107	 0.283753454685211 
1108	 0.283694684505463 
1109	 0.283625096082687 
1110	 0.283556401729584 
1111	 0.283471077680588 
1112	 0.283423781394959 
1113	 0.283398330211639 
1114	 0.283392995595932 
1115	 0.283361554145813 
1116	 0.28328013420105 
1117	 0.283234655857086 
1118	 0.283190488815308 
1119	 0.283120512962341 
1120	 0.283069014549255 
1121	 0.283042460680008 
1122	 0.282956749200821 
1123	 0.28290867805481 
1124	 0.282868891954422 
1125	 0.282808810472488 
1126	 0.282767534255981 
1127	 0.282684355974197 
1128	 0.28258803486824 
1129	 0.282519280910492 
1130	 0.282434314489365 
1131	 0.282323449850082 
1132	 0.282217592000961 
1133	 0.2821244597435 
1134	 0.282006531953812 
1135	 0.281867146492004 
1136	 0.281748533248901 
1137	 0.281632363796234 
1138	 0.281457126140594 
1139	 0.281378239393234 
1140	 0.281334906816483 
1141	 0.281213968992233 
1142	 0.281147003173828 
1143	 0.281067043542862 
1144	 0.280951410531998 
1145	 0.280876725912094 
1146	 0.280814349651337 
1147	 0.280730217695236 
1148	 0.280576527118683 
1149	 0.280446022748947 
1150	 0.280303210020065 
1151	 0.280192285776138 
1152	 0.280084043741226 
1153	 0.280011087656021 
1154	 0.279941380023956 
1155	 0.279840290546417 
1156	 0.279729574918747 
1157	 0.279624819755554 
1158	 0.279514908790588 
1159	 0.279467791318893 
1160	 0.279421120882034 
1161	 0.279336482286453 
1162	 0.279309183359146 
1163	 0.279245436191559 
1164	 0.27916356921196 
1165	 0.27913162112236 
1166	 0.279063522815704 
1167	 0.278967320919037 
1168	 0.27887824177742 
1169	 0.278772979974747 
1170	 0.278687208890915 
1171	 0.278631746768951 
1172	 0.278579264879227 
1173	 0.27855110168457 
1174	 0.278497099876404 
1175	 0.278393119573593 
1176	 0.278303742408752 
1177	 0.278233230113983 
1178	 0.278129428625107 
1179	 0.278031766414642 
1180	 0.277960151433945 
1181	 0.277888506650925 
1182	 0.277831554412842 
1183	 0.277765661478043 
1184	 0.27772131562233 
1185	 0.277655065059662 
1186	 0.277557909488678 
1187	 0.277485519647598 
1188	 0.277438402175903 
1189	 0.277347236871719 
1190	 0.277254611253738 
1191	 0.27719259262085 
1192	 0.27712270617485 
1193	 0.277120441198349 
1194	 0.277126520872116 
1195	 0.277059972286224 
1196	 0.276987135410309 
1197	 0.276880264282227 
1198	 0.276734411716461 
1199	 0.276612013578415 
1200	 0.276518374681473 
1201	 0.276407420635223 
1202	 0.276304185390472 
1203	 0.276230752468109 
1204	 0.276149183511734 
1205	 0.276037782430649 
1206	 0.275959461927414 
1207	 0.275915890932083 
1208	 0.275853395462036 
1209	 0.275750309228897 
1210	 0.275650352239609 
1211	 0.275542050600052 
1212	 0.275395661592484 
1213	 0.275273352861404 
1214	 0.275180846452713 
1215	 0.275060921907425 
1216	 0.274939924478531 
1217	 0.274817019701004 
1218	 0.274684578180313 
1219	 0.274576544761658 
1220	 0.274484366178513 
1221	 0.27436950802803 
1222	 0.274280667304993 
1223	 0.274168103933334 
1224	 0.274006187915802 
1225	 0.273876249790192 
1226	 0.273769527673721 
1227	 0.273634254932404 
1228	 0.273488491773605 
1229	 0.273362636566162 
1230	 0.27324253320694 
1231	 0.273148506879807 
1232	 0.273072242736816 
1233	 0.27296581864357 
1234	 0.272852599620819 
1235	 0.272701680660248 
1236	 0.27252984046936 
1237	 0.272425770759583 
1238	 0.272298842668533 
1239	 0.272188365459442 
1240	 0.272043764591217 
1241	 0.271889507770538 
1242	 0.27170118689537 
1243	 0.271466434001923 
1244	 0.27126556634903 
1245	 0.271041959524155 
1246	 0.27086341381073 
1247	 0.270715683698654 
1248	 0.270576000213623 
1249	 0.27046200633049 
1250	 0.27037113904953 
1251	 0.270308494567871 
1252	 0.27025380730629 
1253	 0.270192563533783 
1254	 0.27015820145607 
1255	 0.270142138004303 
1256	 0.270103722810745 
1257	 0.270072996616364 
1258	 0.270040243864059 
1259	 0.270006448030472 
1260	 0.269957542419434 
1261	 0.269925266504288 
1262	 0.269927740097046 
1263	 0.269885659217834 
1264	 0.269812077283859 
1265	 0.269745230674744 
1266	 0.269677996635437 
1267	 0.269570142030716 
1268	 0.269435584545136 
1269	 0.269322961568832 
1270	 0.269187778234482 
1271	 0.269062280654907 
1272	 0.26895534992218 
1273	 0.268843799829483 
1274	 0.268727272748947 
1275	 0.268606662750244 
1276	 0.268483370542526 
1277	 0.268337339162827 
1278	 0.268179684877396 
1279	 0.267995029687881 
1280	 0.2678082883358 
1281	 0.267600208520889 
1282	 0.267431139945984 
1283	 0.267278343439102 
1284	 0.267097026109695 
1285	 0.266948729753494 
1286	 0.266738742589951 
1287	 0.266448259353638 
1288	 0.266219794750214 
1289	 0.2660051882267 
1290	 0.26577365398407 
1291	 0.26556196808815 
1292	 0.265338659286499 
1293	 0.265059888362885 
1294	 0.264782130718231 
1295	 0.264568090438843 
1296	 0.264357388019562 
1297	 0.264122873544693 
1298	 0.263896763324738 
1299	 0.2636479139328 
1300	 0.26341700553894 
1301	 0.263227611780167 
1302	 0.263035893440247 
1303	 0.2628413438797 
1304	 0.262640416622162 
1305	 0.262443900108337 
1306	 0.262248665094376 
1307	 0.262058854103088 
1308	 0.261866211891174 
1309	 0.261688441038132 
1310	 0.261520475149155 
1311	 0.261365443468094 
1312	 0.261221349239349 
1313	 0.261080652475357 
1314	 0.260952204465866 
1315	 0.260826915502548 
1316	 0.260694414377213 
1317	 0.26060289144516 
1318	 0.260514378547668 
1319	 0.260440498590469 
1320	 0.260409146547318 
1321	 0.260350823402405 
1322	 0.260261923074722 
1323	 0.260175257921219 
1324	 0.260065406560898 
1325	 0.259945005178452 
1326	 0.259871363639832 
1327	 0.259824365377426 
1328	 0.259789377450943 
1329	 0.259796440601349 
1330	 0.259784519672394 
1331	 0.259778320789337 
1332	 0.259761869907379 
1333	 0.259703040122986 
1334	 0.259712725877762 
1335	 0.259786695241928 
1336	 0.259813040494919 
1337	 0.259868323802948 
1338	 0.259881913661957 
1339	 0.259819895029068 
1340	 0.259800851345062 
1341	 0.259798556566238 
1342	 0.259795963764191 
1343	 0.259787648916245 
1344	 0.259785085916519 
1345	 0.25976425409317 
1346	 0.259733080863953 
1347	 0.259711116552353 
1348	 0.259678512811661 
1349	 0.259602874517441 
1350	 0.259543210268021 
1351	 0.259470552206039 
1352	 0.259390950202942 
1353	 0.259274780750275 
1354	 0.259149998426437 
1355	 0.259011209011078 
1356	 0.258861720561981 
1357	 0.258659511804581 
1358	 0.258427202701569 
1359	 0.258179366588593 
1360	 0.257865160703659 
1361	 0.257595658302307 
1362	 0.257401883602142 
1363	 0.257091820240021 
1364	 0.256696194410324 
1365	 0.256347984075546 
1366	 0.25597557425499 
1367	 0.255587369203568 
1368	 0.255226135253906 
1369	 0.254856944084167 
1370	 0.254429370164871 
1371	 0.253974914550781 
1372	 0.253540098667145 
1373	 0.253163278102875 
1374	 0.252797067165375 
1375	 0.252413511276245 
1376	 0.252069056034088 
1377	 0.251683533191681 
1378	 0.251305103302002 
1379	 0.250921726226807 
1380	 0.250433802604675 
1381	 0.249964371323586 
1382	 0.249259293079376 
1383	 0.248509779572487 
1384	 0.24741442501545 
1385	 0.24619472026825 
1386	 0.244585245847702 
1387	 0.242805153131485 
1388	 0.24048413336277 
1389	 0.237816974520683 
1390	 0.234703406691551 
1391	 0.231123313307762 
1392	 0.227163970470428 
1393	 0.222619935870171 
1394	 0.218046590685844 
1395	 0.212895691394806 
1396	 0.208031088113785 
1397	 0.202921003103256 
1398	 0.198300793766975 
1399	 0.193839997053146 
1400	 0.189721271395683 
1401	 0.186056643724442 
1402	 0.18282587826252 
1403	 0.179970815777779 
1404	 0.177456125617027 
1405	 0.175313472747803 
1406	 0.173470288515091 
1407	 0.171907305717468 
1408	 0.170653775334358 
1409	 0.169685631990433 
1410	 0.169064283370972 
1411	 0.168980419635773 
1412	 0.169190987944603 
1413	 0.170173719525337 
1414	 0.171721026301384 
1415	 0.173876702785492 
1416	 0.176732882857323 
1417	 0.179978713393211 
1418	 0.183945223689079 
1419	 0.187916904687881 
1420	 0.192449167370796 
1421	 0.196746751666069 
1422	 0.201305866241455 
1423	 0.205485284328461 
1424	 0.20965501666069 
1425	 0.213438495993614 
1426	 0.216974183917046 
1427	 0.220178052783012 
1428	 0.223081052303314 
1429	 0.225723549723625 
1430	 0.227993652224541 
1431	 0.23011714220047 
1432	 0.232004195451736 
1433	 0.233707308769226 
1434	 0.235202714800835 
1435	 0.236521199345589 
1436	 0.2376459389925 
1437	 0.238626778125763 
1438	 0.239503875374794 
1439	 0.240263745188713 
1440	 0.240924999117851 
1441	 0.24146856367588 
1442	 0.241903901100159 
1443	 0.242276757955551 
1444	 0.242574915289879 
1445	 0.242794066667557 
1446	 0.243016317486763 
1447	 0.243189245462418 
1448	 0.243355840444565 
1449	 0.243522167205811 
1450	 0.243635237216949 
1451	 0.24369740486145 
1452	 0.243752136826515 
1453	 0.243769347667694 
1454	 0.243794217705727 
1455	 0.243817701935768 
1456	 0.243813678622246 
1457	 0.243780344724655 
1458	 0.243765413761139 
1459	 0.243742182850838 
1460	 0.243714272975922 
1461	 0.243690967559814 
1462	 0.243667051196098 
1463	 0.243635028600693 
1464	 0.243604749441147 
1465	 0.243571326136589 
1466	 0.243553355336189 
1467	 0.243554621934891 
1468	 0.243518486618996 
1469	 0.243480369448662 
1470	 0.243442475795746 
1471	 0.243350669741631 
1472	 0.243301153182983 
1473	 0.243309110403061 
1474	 0.243271440267563 
1475	 0.243214264512062 
1476	 0.243172585964203 
1477	 0.243114173412323 
1478	 0.243051782250404 
1479	 0.243012443184853 
1480	 0.24297808110714 
1481	 0.242931485176086 
1482	 0.242875382304192 
1483	 0.242837324738503 
1484	 0.242804363369942 
1485	 0.242764741182327 
1486	 0.242738515138626 
1487	 0.242700442671776 
1488	 0.242653667926788 
1489	 0.242608681321144 
1490	 0.242560267448425 
1491	 0.242540642619133 
1492	 0.242507725954056 
1493	 0.242465138435364 
1494	 0.242435321211815 
1495	 0.24237796664238 
1496	 0.242279499769211 
1497	 0.242224425077438 
1498	 0.242171809077263 
1499	 0.242125019431114 
1500	 0.242120966315269 
1501	 0.242065235972404 
1502	 0.24197293817997 
1503	 0.241916820406914 
1504	 0.24185274541378 
1505	 0.241791978478432 
1506	 0.241762861609459 
1507	 0.241707161068916 
1508	 0.241629645228386 
1509	 0.241560712456703 
1510	 0.241477712988853 
1511	 0.241421610116959 
1512	 0.241381362080574 
1513	 0.241329997777939 
1514	 0.241287872195244 
1515	 0.241253912448883 
1516	 0.241226360201836 
1517	 0.241183012723923 
1518	 0.241123884916306 
1519	 0.241096615791321 
1520	 0.241096675395966 
1521	 0.241050243377686 
1522	 0.241015017032623 
1523	 0.240967527031898 
1524	 0.240847483277321 
1525	 0.240765333175659 
1526	 0.240729853510857 
1527	 0.240662917494774 
1528	 0.240583673119545 
1529	 0.240508288145065 
1530	 0.240435004234314 
1531	 0.240327551960945 
1532	 0.240229085087776 
1533	 0.240166679024696 
1534	 0.240125581622124 
1535	 0.240051612257957 
1536	 0.239960819482803 
1537	 0.239884451031685 
1538	 0.239764973521233 
1539	 0.23966358602047 
1540	 0.239617764949799 
1541	 0.239551201462746 
1542	 0.239507049322128 
1543	 0.239462047815323 
1544	 0.239378422498703 
1545	 0.239309951663017 
1546	 0.239241406321526 
1547	 0.239181309938431 
1548	 0.239132598042488 
1549	 0.23907633125782 
1550	 0.239025831222534 
1551	 0.238951444625854 
1552	 0.238834798336029 
1553	 0.23872509598732 
1554	 0.238657385110855 
1555	 0.238626196980476 
1556	 0.238606944680214 
1557	 0.238553881645203 
1558	 0.238460704684258 
1559	 0.238369718194008 
1560	 0.238298505544662 
1561	 0.238261058926582 
1562	 0.238237619400024 
1563	 0.238173022866249 
1564	 0.238085985183716 
1565	 0.237997472286224 
1566	 0.237906396389008 
1567	 0.237791419029236 
1568	 0.237677186727524 
1569	 0.237558975815773 
1570	 0.237464621663094 
1571	 0.23736010491848 
1572	 0.237276941537857 
1573	 0.237237691879272 
1574	 0.237142696976662 
1575	 0.237022057175636 
1576	 0.236927330493927 
1577	 0.236825957894325 
1578	 0.236720994114876 
1579	 0.236623257398605 
1580	 0.236524611711502 
1581	 0.23639789223671 
1582	 0.236311018466949 
1583	 0.236278593540192 
1584	 0.236199676990509 
1585	 0.236101493239403 
1586	 0.23602719604969 
1587	 0.23593832552433 
1588	 0.235839813947678 
1589	 0.235770493745804 
1590	 0.235688731074333 
1591	 0.235573887825012 
1592	 0.235484421253204 
1593	 0.235407799482346 
1594	 0.235328406095505 
1595	 0.235253006219864 
1596	 0.235177636146545 
1597	 0.235115706920624 
1598	 0.235038682818413 
1599	 0.234958246350288 
1600	 0.234861776232719 
1601	 0.234745010733604 
1602	 0.234644085168839 
1603	 0.234525457024574 
1604	 0.23443141579628 
1605	 0.23436439037323 
1606	 0.234293460845947 
1607	 0.234243303537369 
1608	 0.234156608581543 
1609	 0.234049618244171 
1610	 0.233952552080154 
1611	 0.233830153942108 
1612	 0.233733266592026 
1613	 0.233679249882698 
1614	 0.233579516410828 
1615	 0.233427166938782 
1616	 0.233342990279198 
1617	 0.2332753688097 
1618	 0.233211159706116 
1619	 0.233221337199211 
1620	 0.233166009187698 
1621	 0.233062013983727 
1622	 0.23296320438385 
1623	 0.232843056321144 
1624	 0.232739612460136 
1625	 0.232641071081161 
1626	 0.232535302639008 
1627	 0.232426822185516 
1628	 0.232321068644524 
1629	 0.232214137911797 
1630	 0.232105791568756 
1631	 0.232010573148727 
1632	 0.231906875967979 
1633	 0.231762573122978 
1634	 0.231669574975967 
1635	 0.231626287102699 
1636	 0.231533586978912 
1637	 0.231444925069809 
1638	 0.231359109282494 
1639	 0.231228783726692 
1640	 0.231125071644783 
1641	 0.2310511469841 
1642	 0.230977490544319 
1643	 0.230908170342445 
1644	 0.230830043554306 
1645	 0.230769351124763 
1646	 0.230674222111702 
1647	 0.230549171566963 
1648	 0.230444505810738 
1649	 0.230335548520088 
1650	 0.230239942669868 
1651	 0.230140194296837 
1652	 0.230050444602966 
1653	 0.229973420500755 
1654	 0.229882940649986 
1655	 0.229802012443542 
1656	 0.229745268821716 
1657	 0.229695156216621 
1658	 0.229614272713661 
1659	 0.229543522000313 
1660	 0.229437321424484 
1661	 0.229275465011597 
1662	 0.229178264737129 
1663	 0.229097381234169 
1664	 0.229032546281815 
1665	 0.229021117091179 
1666	 0.228932216763496 
1667	 0.228823825716972 
1668	 0.228692084550858 
1669	 0.22858701646328 
1670	 0.228536829352379 
1671	 0.228438422083855 
1672	 0.228341907262802 
1673	 0.228259414434433 
1674	 0.228100538253784 
1675	 0.22797167301178 
1676	 0.227887064218521 
1677	 0.22781403362751 
1678	 0.227770984172821 
1679	 0.227718964219093 
1680	 0.227682501077652 
1681	 0.227592289447784 
1682	 0.227465450763702 
1683	 0.227410882711411 
1684	 0.227363333106041 
1685	 0.227288916707039 
1686	 0.227220594882965 
1687	 0.227158188819885 
1688	 0.227085947990417 
1689	 0.226983577013016 
1690	 0.226896643638611 
1691	 0.226819321513176 
1692	 0.226669922471046 
1693	 0.226543441414833 
1694	 0.226474463939667 
1695	 0.226394981145859 
1696	 0.226353734731674 
1697	 0.226322054862976 
1698	 0.226248607039452 
1699	 0.226168587803841 
1700	 0.226096987724304 
1701	 0.226026996970177 
1702	 0.225962325930595 
1703	 0.225887268781662 
1704	 0.225811466574669 
1705	 0.225741177797318 
1706	 0.225637152791023 
1707	 0.225510701537132 
1708	 0.225388586521149 
1709	 0.225261703133583 
1710	 0.225198864936829 
1711	 0.22517703473568 
1712	 0.225074827671051 
1713	 0.225001156330109 
1714	 0.224915966391563 
1715	 0.224761173129082 
1716	 0.224717363715172 
1717	 0.224646031856537 
1718	 0.224491477012634 
1719	 0.224419891834259 
1720	 0.224336385726929 
1721	 0.224222883582115 
1722	 0.224164873361588 
1723	 0.224096164107323 
1724	 0.224001973867416 
1725	 0.223905771970749 
1726	 0.223784178495407 
1727	 0.223692715167999 
1728	 0.223606184124947 
1729	 0.223516881465912 
1730	 0.223450839519501 
1731	 0.223352894186974 
1732	 0.223232224583626 
1733	 0.223111137747765 
1734	 0.222996816039085 
1735	 0.222862496972084 
1736	 0.222693845629692 
1737	 0.222572207450867 
1738	 0.222431033849716 
1739	 0.222340017557144 
1740	 0.22227318584919 
1741	 0.222141578793526 
1742	 0.222041249275208 
1743	 0.221915990114212 
1744	 0.221740260720253 
1745	 0.221674129366875 
1746	 0.22158807516098 
1747	 0.221478119492531 
1748	 0.221440747380257 
1749	 0.221329405903816 
1750	 0.221170693635941 
1751	 0.221049040555954 
1752	 0.220905929803848 
1753	 0.220779672265053 
1754	 0.220689609646797 
1755	 0.22057318687439 
1756	 0.220476552844048 
1757	 0.220336750149727 
1758	 0.220184028148651 
1759	 0.22011336684227 
1760	 0.219997778534889 
1761	 0.219938725233078 
1762	 0.219916895031929 
1763	 0.219782099127769 
1764	 0.21966752409935 
1765	 0.219557419419289 
1766	 0.21938981115818 
1767	 0.219252914190292 
1768	 0.219163745641708 
1769	 0.219026386737823 
1770	 0.218878835439682 
1771	 0.218797564506531 
1772	 0.218699917197227 
1773	 0.218611732125282 
1774	 0.218574002385139 
1775	 0.218493729829788 
1776	 0.218391373753548 
1777	 0.218260884284973 
1778	 0.218211382627487 
1779	 0.218208029866219 
1780	 0.218170285224915 
1781	 0.2181336581707 
1782	 0.218071758747101 
1783	 0.218000710010529 
1784	 0.21795217692852 
1785	 0.217893615365028 
1786	 0.217834323644638 
1787	 0.217768043279648 
1788	 0.217684268951416 
1789	 0.217623963952065 
1790	 0.217538341879845 
1791	 0.217438995838165 
1792	 0.217363059520721 
1793	 0.217261210083961 
1794	 0.217155903577805 
1795	 0.217057436704636 
1796	 0.21700830757618 
1797	 0.216980874538422 
1798	 0.216930150985718 
1799	 0.21687325835228 
1800	 0.216737031936646 
1801	 0.216595321893692 
1802	 0.216518104076385 
1803	 0.216444477438927 
1804	 0.216374576091766 
1805	 0.216272369027138 
1806	 0.216149270534515 
1807	 0.216066792607307 
1808	 0.215972721576691 
1809	 0.215880408883095 
1810	 0.215808674693108 
1811	 0.215660482645035 
1812	 0.215567141771317 
1813	 0.215500488877296 
1814	 0.21544985473156 
1815	 0.215438202023506 
1816	 0.215415373444557 
1817	 0.215304404497147 
1818	 0.215180024504662 
1819	 0.215056240558624 
1820	 0.214891254901886 
1821	 0.21478034555912 
1822	 0.214678451418877 
1823	 0.214511439204216 
1824	 0.214412927627563 
1825	 0.21426497399807 
1826	 0.214015856385231 
1827	 0.213834971189499 
1828	 0.213612169027328 
1829	 0.213364750146866 
1830	 0.213233307003975 
1831	 0.219617828726768 
1832	 0.21941964328289 
1833	 0.219232693314552 
1834	 0.219048276543617 
1835	 0.218924939632416 
1836	 0.218829348683357 
1837	 0.218715414404869 
1838	 0.21862106025219 
1839	 0.218570306897163 
1840	 0.218464225530624 
1841	 0.218325316905975 
1842	 0.21823962032795 
1843	 0.218142032623291 
1844	 0.218063488602638 
1845	 0.218002006411552 
1846	 0.217963695526123 
1847	 0.217949569225311 
1848	 0.217916503548622 
1849	 0.217953652143478 
1850	 0.217945843935013 
1851	 0.217877849936485 
1852	 0.217845097184181 
1853	 0.217778712511063 
1854	 0.217716172337532 
1855	 0.217661365866661 
1856	 0.217627018690109 
1857	 0.217601254582405 
1858	 0.217592149972916 
1859	 0.217546537518501 
1860	 0.217508316040039 
1861	 0.21744692325592 
1862	 0.217241957783699 
1863	 0.217092230916023 
1864	 0.216987699270248 
1865	 0.216847077012062 
1866	 0.216709330677986 
1867	 0.216605260968208 
1868	 0.216439321637154 
1869	 0.216310262680054 
1870	 0.216171279549599 
1871	 0.215948060154915 
1872	 0.215732291340828 
1873	 0.215424418449402 
1874	 0.215080633759499 
1875	 0.214761465787888 
1876	 0.2144595682621 
1877	 0.214138507843018 
1878	 0.213836327195168 
1879	 0.213432013988495 
1880	 0.212958365678787 
1881	 0.212442383170128 
1882	 0.211870238184929 
1883	 0.211395010352135 
1884	 0.211030840873718 
1885	 0.210627093911171 
1886	 0.210144191980362 
1887	 0.20955453813076 
1888	 0.208974406123161 
1889	 0.208311557769775 
1890	 0.207685470581055 
1891	 0.207082509994507 
1892	 0.206563606858253 
1893	 0.206029057502747 
1894	 0.205421775579453 
1895	 0.204859435558319 
1896	 0.204259186983109 
1897	 0.203497961163521 
1898	 0.202754840254784 
1899	 0.202104777097702 
1900	 0.201485306024551 
1901	 0.20083187520504 
1902	 0.200266137719154 
1903	 0.199788898229599 
1904	 0.199183240532875 
1905	 0.198576763272285 
1906	 0.198115721344948 
1907	 0.197649613022804 
1908	 0.19719509780407 
1909	 0.196804031729698 
1910	 0.196468070149422 
1911	 0.196159973740578 
1912	 0.195899233222008 
1913	 0.195677995681763 
1914	 0.195524349808693 
1915	 0.195360168814659 
1916	 0.195100665092468 
1917	 0.194883897900581 
1918	 0.194753780961037 
1919	 0.194604054093361 
1920	 0.19450344145298 
1921	 0.194477930665016 
1922	 0.194385796785355 
1923	 0.194248676300049 
1924	 0.194076821208 
1925	 0.193910509347916 
1926	 0.193831235170364 
1927	 0.19383005797863 
1928	 0.193724557757378 
1929	 0.193674236536026 
1930	 0.19365893304348 
1931	 0.193526476621628 
1932	 0.193443059921265 
1933	 0.193362921476364 
1934	 0.193301171064377 
1935	 0.193187043070793 
1936	 0.193164885044098 
1937	 0.19317527115345 
1938	 0.193261042237282 
1939	 0.193324714899063 
1940	 0.193235576152802 
1941	 0.193208768963814 
1942	 0.193170413374901 
1943	 0.19305045902729 
1944	 0.193025499582291 
1945	 0.193095535039902 
1946	 0.193100258708 
1947	 0.193083763122559 
1948	 0.193157628178596 
1949	 0.19316078722477 
1950	 0.193082258105278 
1951	 0.193111747503281 
1952	 0.193163022398949 
1953	 0.193208485841751 
1954	 0.193311765789986 
1955	 0.19331406056881 
1956	 0.19320248067379 
1957	 0.193188965320587 
1958	 0.193182468414307 
1959	 0.193204984068871 
1960	 0.193283006548882 
1961	 0.193386912345886 
1962	 0.193467170000076 
1963	 0.193465992808342 
1964	 0.193455561995506 
1965	 0.193508669734001 
1966	 0.19356968998909 
1967	 0.19359102845192 
1968	 0.19361674785614 
1969	 0.193648844957352 
1970	 0.193707048892975 
1971	 0.193756833672523 
1972	 0.193813279271126 
1973	 0.193903610110283 
1974	 0.193986982107162 
1975	 0.194056198000908 
1976	 0.194083169102669 
1977	 0.194143548607826 
1978	 0.194237679243088 
1979	 0.194278806447983 
1980	 0.194347724318504 
1981	 0.194441795349121 
1982	 0.194588780403137 
1983	 0.194640532135963 
1984	 0.194679841399193 
1985	 0.194723874330521 
1986	 0.19470939040184 
1987	 0.194694355130196 
1988	 0.194784268736839 
1989	 0.194850623607635 
1990	 0.194893792271614 
1991	 0.194964930415154 
1992	 0.194959178566933 
1993	 0.194935664534569 
1994	 0.195012435317039 
1995	 0.19515885412693 
1996	 0.195263147354126 
1997	 0.195439681410789 
1998	 0.195574700832367 
1999	 0.195643380284309 
2000	 0.195756316184998 
2001	 0.195932269096375 
2002	 0.196108981966972 
2003	 0.196283280849457 
2004	 0.19636344909668 
2005	 0.196403354406357 
2006	 0.196468710899353 
2007	 0.196516796946526 
2008	 0.196530923247337 
2009	 0.196598649024963 
2010	 0.196719065308571 
2011	 0.196766823530197 
2012	 0.196800455451012 
2013	 0.196824476122856 
2014	 0.196874231100082 
2015	 0.196866169571877 
2016	 0.196840465068817 
2017	 0.196930736303329 
2018	 0.197027668356895 
2019	 0.197115287184715 
2020	 0.197174280881882 
2021	 0.197283148765564 
2022	 0.197323366999626 
2023	 0.19724129140377 
2024	 0.197258129715919 
2025	 0.197352766990662 
2026	 0.197390586137772 
2027	 0.197438046336174 
2028	 0.197439670562744 
2029	 0.197421208024025 
2030	 0.19746407866478 
2031	 0.197516307234764 
2032	 0.197556480765343 
2033	 0.197635993361473 
2034	 0.19764631986618 
2035	 0.197648093104362 
2036	 0.197605431079865 
2037	 0.197647988796234 
2038	 0.197731718420982 
2039	 0.197745874524117 
2040	 0.197804838418961 
2041	 0.197803989052773 
2042	 0.197705835103989 
2043	 0.197603359818459 
2044	 0.19761823117733 
2045	 0.197660118341446 
2046	 0.19767838716507 
2047	 0.197733655571938 
2048	 0.197725370526314 
2049	 0.197650954127312 
2050	 0.197587192058563 
2051	 0.197493731975555 
2052	 0.19743923842907 
2053	 0.197363063693047 
2054	 0.197348311543465 
2055	 0.197429195046425 
2056	 0.197428286075592 
2057	 0.197400256991386 
2058	 0.197420611977577 
2059	 0.197369039058685 
2060	 0.197212681174278 
2061	 0.197187855839729 
2062	 0.197180390357971 
2063	 0.197121530771255 
2064	 0.197137415409088 
2065	 0.197087243199348 
2066	 0.196945741772652 
2067	 0.196889609098434 
2068	 0.196888253092766 
2069	 0.196838170289993 
2070	 0.196834862232208 
2071	 0.1967533826828 
2072	 0.196620240807533 
2073	 0.196418285369873 
2074	 0.196270897984505 
2075	 0.196138873696327 
2076	 0.19589127600193 
2077	 0.195712342858315 
2078	 0.195576548576355 
2079	 0.195321336388588 
2080	 0.195099234580994 
2081	 0.194959729909897 
2082	 0.19471937417984 
2083	 0.194371670484543 
2084	 0.194066122174263 
2085	 0.193760439753532 
2086	 0.193445205688477 
2087	 0.19316466152668 
2088	 0.192803427577019 
2089	 0.192435339093208 
2090	 0.191948458552361 
2091	 0.19146540760994 
2092	 0.190982222557068 
2093	 0.190498277544975 
2094	 0.190058350563049 
2095	 0.189484313130379 
2096	 0.188843742012978 
2097	 0.188311025500298 
2098	 0.187787279486656 
2099	 0.187296196818352 
2100	 0.186925381422043 
2101	 0.186474487185478 
2102	 0.185960993170738 
2103	 0.185480296611786 
2104	 0.184971705079079 
2105	 0.18450140953064 
2106	 0.184050843119621 
2107	 0.183668985962868 
2108	 0.183211147785187 
2109	 0.182793468236923 
2110	 0.182487428188324 
2111	 0.182158887386322 
2112	 0.181810587644577 
2113	 0.181575939059258 
2114	 0.181292742490768 
2115	 0.180939227342606 
2116	 0.180652275681496 
2117	 0.180354237556458 
2118	 0.180195346474648 
2119	 0.180164992809296 
2120	 0.180061489343643 
2121	 0.180050507187843 
2122	 0.179983645677567 
2123	 0.179775238037109 
2124	 0.179675862193108 
2125	 0.179610043764114 
2126	 0.179643169045448 
2127	 0.179729402065277 
2128	 0.179787769913673 
2129	 0.179755628108978 
2130	 0.179773345589638 
2131	 0.179810792207718 
2132	 0.179783955216408 
2133	 0.179753884673119 
2134	 0.179793372750282 
2135	 0.179714649915695 
2136	 0.17951637506485 
2137	 0.179364889860153 
2138	 0.179270043969154 
2139	 0.179031953215599 
2140	 0.178709343075752 
2141	 0.178377687931061 
2142	 0.177906572818756 
2143	 0.177490785717964 
2144	 0.177098095417023 
2145	 0.176748529076576 
2146	 0.176260814070702 
2147	 0.175715237855911 
2148	 0.175177708268166 
2149	 0.17451074719429 
2150	 0.173836812376976 
2151	 0.173212349414825 
2152	 0.172487303614616 
2153	 0.171649873256683 
2154	 0.170883938670158 
2155	 0.170139953494072 
2156	 0.169311225414276 
2157	 0.168519347906113 
2158	 0.167542695999146 
2159	 0.166444405913353 
2160	 0.165290772914886 
2161	 0.163984358310699 
2162	 0.162727534770966 
2163	 0.161474972963333 
2164	 0.160114794969559 
2165	 0.158749774098396 
2166	 0.157347023487091 
2167	 0.155687391757965 
2168	 0.153998017311096 
2169	 0.152409836649895 
2170	 0.150504440069199 
2171	 0.148544505238533 
2172	 0.146609336137772 
2173	 0.144560903310776 
2174	 0.142329633235931 
2175	 0.1401696652174 
2176	 0.137983337044716 
2177	 0.135783940553665 
2178	 0.133535742759705 
2179	 0.131295531988144 
2180	 0.129058092832565 
2181	 0.126836523413658 
2182	 0.124532468616962 
2183	 0.122342370450497 
2184	 0.120162479579449 
2185	 0.118121661245823 
2186	 0.116178020834923 
2187	 0.114325888454914 
2188	 0.112576887011528 
2189	 0.110920868813992 
2190	 0.109405055642128 
2191	 0.108001321554184 
2192	 0.10665238648653 
2193	 0.1055763438344 
2194	 0.1047178581357 
2195	 0.103922814130783 
2196	 0.103307828307152 
2197	 0.1029192507267 
2198	 0.102644301950932 
2199	 0.102454453706741 
2200	 0.102484956383705 
2201	 0.102791897952557 
2202	 0.10307040810585 
2203	 0.103468149900436 
2204	 0.103999882936478 
2205	 0.104569777846336 
2206	 0.105313301086426 
2207	 0.106264404952526 
2208	 0.107241690158844 
2209	 0.108334951102734 
2210	 0.109490819275379 
2211	 0.110738456249237 
2212	 0.112037017941475 
2213	 0.113324843347073 
2214	 0.114731840789318 
2215	 0.116183437407017 
2216	 0.117570780217648 
2217	 0.118911251425743 
2218	 0.12042398005724 
2219	 0.121990539133549 
2220	 0.123524896800518 
2221	 0.125223413109779 
2222	 0.126801267266273 
2223	 0.128233790397644 
2224	 0.129526063799858 
2225	 0.130794331431389 
2226	 0.131983414292336 
2227	 0.133091494441032 
2228	 0.134082093834877 
2229	 0.135111168026924 
2230	 0.136146426200867 
2231	 0.137007683515549 
2232	 0.137732967734337 
2233	 0.138569951057434 
2234	 0.13934700191021 
2235	 0.140069261193275 
2236	 0.140930652618408 
2237	 0.141661763191223 
2238	 0.142246380448341 
2239	 0.14271804690361 
2240	 0.143392413854599 
2241	 0.143887802958488 
2242	 0.14438234269619 
2243	 0.145006939768791 
2244	 0.145544588565826 
2245	 0.146078109741211 
2246	 0.146513596177101 
2247	 0.146958157420158 
2248	 0.147333681583405 
2249	 0.147617131471634 
2250	 0.14808289706707 
2251	 0.148495808243752 
2252	 0.148853272199631 
2253	 0.149233162403107 
2254	 0.149543419480324 
2255	 0.149730622768402 
2256	 0.149975702166557 
2257	 0.150215610861778 
2258	 0.150501519441605 
2259	 0.15081849694252 
2260	 0.151095151901245 
2261	 0.1514772772789 
2262	 0.151628419756889 
2263	 0.151515409350395 
2264	 0.151659831404686 
2265	 0.151862010359764 
2266	 0.151965171098709 
2267	 0.152233853936195 
2268	 0.152366071939468 
2269	 0.15223591029644 
2270	 0.1522156894207 
2271	 0.152243763208389 
2272	 0.152270451188087 
2273	 0.152323558926582 
2274	 0.152416095137596 
2275	 0.152336284518242 
2276	 0.152160733938217 
2277	 0.151973992586136 
2278	 0.151828229427338 
2279	 0.151825919747353 
2280	 0.151802375912666 
2281	 0.151576071977615 
2282	 0.151143774390221 
2283	 0.150672048330307 
2284	 0.150312602519989 
2285	 0.150157123804092 
2286	 0.149961158633232 
2287	 0.149571642279625 
2288	 0.1491619348526 
2289	 0.148789703845978 
2290	 0.148419782519341 
2291	 0.147965639829636 
2292	 0.147651746869087 
2293	 0.147127792239189 
2294	 0.146312341094017 
2295	 0.145705863833427 
2296	 0.145233184099197 
2297	 0.144524917006493 
2298	 0.143683716654778 
2299	 0.142968490719795 
2300	 0.142122611403465 
2301	 0.141434386372566 
2302	 0.141018912196159 
2303	 0.140343680977821 
2304	 0.139601573348045 
2305	 0.138817250728607 
2306	 0.137791395187378 
2307	 0.136978670954704 
2308	 0.136392220854759 
2309	 0.135529100894928 
2310	 0.13459675014019 
2311	 0.133713930845261 
2312	 0.13250333070755 
2313	 0.131570994853973 
2314	 0.13100902736187 
2315	 0.130222871899605 
2316	 0.129408285021782 
2317	 0.128595992922783 
2318	 0.127635583281517 
2319	 0.126545250415802 
2320	 0.125590786337852 
2321	 0.124733440577984 
2322	 0.123852699995041 
2323	 0.122988864779472 
2324	 0.12227713316679 
2325	 0.121541544795036 
2326	 0.120713010430336 
2327	 0.119892753660679 
2328	 0.119046553969383 
2329	 0.118264921009541 
2330	 0.11753286421299 
2331	 0.116735875606537 
2332	 0.115822203457355 
2333	 0.114933170378208 
2334	 0.114303261041641 
2335	 0.113866254687309 
2336	 0.113394357264042 
2337	 0.112823538482189 
2338	 0.112176485359669 
2339	 0.111666642129421 
2340	 0.111226201057434 
2341	 0.110684305429459 
2342	 0.110305331647396 
2343	 0.109919294714928 
2344	 0.109486222267151 
2345	 0.109226249158382 
2346	 0.108802512288094 
2347	 0.108455345034599 
2348	 0.108547367155552 
2349	 0.108603946864605 
2350	 0.108632765710354 
2351	 0.108799181878567 
2352	 0.108889125287533 
2353	 0.10884490609169 
2354	 0.108954019844532 
2355	 0.109120063483715 
2356	 0.109417207539082 
2357	 0.109858065843582 
2358	 0.110106870532036 
2359	 0.110429100692272 
2360	 0.110679112374783 
2361	 0.110693871974945 
2362	 0.110933177173138 
2363	 0.111402496695518 
2364	 0.111582443118095 
2365	 0.111578613519669 
2366	 0.111845396459103 
2367	 0.112195484340191 
2368	 0.1123046875 
2369	 0.112461119890213 
2370	 0.112594172358513 
2371	 0.112474925816059 
2372	 0.112518414855003 
2373	 0.112821877002716 
2374	 0.112796671688557 
2375	 0.112506560981274 
2376	 0.112383611500263 
2377	 0.112212605774403 
2378	 0.112162329256535 
2379	 0.112295597791672 
2380	 0.11218187212944 
2381	 0.112001977860928 
2382	 0.11187469214201 
2383	 0.111487664282322 
2384	 0.111390739679337 
2385	 0.111559495329857 
2386	 0.111546494066715 
2387	 0.111661188304424 
2388	 0.111575521528721 
2389	 0.111267529428005 
2390	 0.111155100166798 
2391	 0.111007556319237 
2392	 0.11090873926878 
2393	 0.110957533121109 
2394	 0.1108578145504 
2395	 0.110684745013714 
2396	 0.110545441508293 
2397	 0.110380418598652 
2398	 0.110203310847282 
2399	 0.109999515116215 
2400	 0.109855741262436 
2401	 0.109821990132332 
2402	 0.109594874083996 
2403	 0.109219878911972 
2404	 0.108981691300869 
2405	 0.108726285398006 
2406	 0.108410052955151 
2407	 0.108322598040104 
2408	 0.107847519218922 
2409	 0.106846310198307 
2410	 0.106312781572342 
2411	 0.10585643351078 
2412	 0.105434015393257 
2413	 0.105336166918278 
2414	 0.105131164193153 
2415	 0.104853473603725 
2416	 0.104412570595741 
2417	 0.103875823318958 
2418	 0.10339679569006 
2419	 0.10287020355463 
2420	 0.102387942373753 
2421	 0.101967379450798 
2422	 0.101594023406506 
2423	 0.10111241787672 
2424	 0.100628435611725 
2425	 0.100352846086025 
2426	 0.100003808736801 
2427	 9.95258465409279E-02 
2428	 9.91096347570419E-02 
2429	 9.85815972089767E-02 
2430	 9.82995182275772E-02 
2431	 9.82339233160019E-02 
2432	 9.79688987135887E-02 
2433	 9.79461297392845E-02 
2434	 9.76838693022728E-02 
2435	 9.69185084104538E-02 
2436	 9.67476218938828E-02 
2437	 9.67860296368599E-02 
2438	 9.68689247965813E-02 
2439	 0.09734196215868 
2440	 9.74409058690071E-02 
2441	 9.74020808935165E-02 
2442	 9.74745973944664E-02 
2443	 9.75656062364578E-02 
2444	 9.73801016807556E-02 
2445	 9.68812480568886E-02 
2446	 9.70962271094322E-02 
2447	 9.75327789783478E-02 
2448	 9.77532789111137E-02 
2449	 9.85050275921822E-02 
2450	 9.86418724060059E-02 
2451	 9.80356708168983E-02 
2452	 9.81156006455421E-02 
2453	 9.85532477498055E-02 
2454	 9.88622382283211E-02 
2455	 9.87550988793373E-02 
2456	 9.76715832948685E-02 
2457	 0.097176305949688 
2458	 9.74341183900833E-02 
2459	 9.77542027831078E-02 
2460	 9.87804904580116E-02 
2461	 9.95635911822319E-02 
2462	 9.96439680457115E-02 
2463	 9.96891632676125E-02 
2464	 9.93887186050415E-02 
2465	 9.95469093322754E-02 
2466	 9.99018549919128E-02 
2467	 0.100203089416027 
2468	 0.101091660559177 
2469	 0.101534709334373 
2470	 0.101594157516956 
2471	 0.101649358868599 
2472	 0.101565651595592 
2473	 0.101331979036331 
2474	 0.100764855742455 
2475	 0.100502997636795 
2476	 0.100050330162048 
2477	 0.100045271217823 
2478	 0.100719377398491 
2479	 0.101020015776157 
2480	 0.10120639950037 
2481	 0.101687148213387 
2482	 0.102354027330875 
2483	 0.102716647088528 
2484	 0.103516601026058 
2485	 0.103544555604458 
2486	 0.102468244731426 
2487	 0.102175638079643 
2488	 0.101919874548912 
2489	 0.101732648909092 
2490	 0.101873300969601 
2491	 0.102090373635292 
2492	 0.102531403303146 
2493	 0.102448202669621 
2494	 0.102062411606312 
2495	 0.102372422814369 
2496	 0.102467715740204 
2497	 0.102879494428635 
2498	 0.104648791253567 
2499	 0.104839682579041 
2500	 0.103851102292538 
