
Text conversion of header file \A_MEDIDAS\PROJETOS\BRASIL\BLOCO GAVIAO\JACOBINA\CANIF27\sco\CANIF27_029.70_00004.asd.ref
 -------------------------------------------------------------
                                                                                                                                                            
The instrument number was  16586/1
New ASD spectrum file: Program version = 6.00 file version = 1.00
Spectrum saved: 10/16/2018 at 10:19:49
VNIR integration time : 34
VNIR channel 1 wavelength = 350 wavelength step = 1
There were 50 samples per data value
xmin = 350 xmax= 2500
ymin= 0 ymax= 1.25
The instrument digitizes spectral values to 16 bits
SWIR1 gain was 203 offset was 2094
SWIR2 gain was 499 offset was 2264
Join between VNIR and SWIR1 was 1000 nm
Join between SWIR1 and SWIR2 was 1830 nm
Absolute Reflectance is Enabled
The Absolute Reflectance File is abs165861.ref
VNIR dark signal subtracted
50 dark measurements taken Tue Oct 16 10:13:56 2018
DCC value was 0
Data is compared to a white reference:
60 white reference measurements taken Tue Oct 16 10:14:04 2018
There was no foreoptic attached
Spectrum file is reflectance data
GPS-Latitude is S0
GPS-Longitude is E0
GPS-Altitude is 0
GPS-UTC is Wed Dec 31 17:00:00 1969

Smart Detector
Serial#  0
Signal (A)  0.000E00
Dark (A)  0.000E00
Ref (A)  0.000E00
Status  0 - Uninitialized
Gain  E-4
Averaging  0
Temp (C)  0.0
Humid (%)  0.0

Reflectance Absolute
Wavelength	CANIF27_29.70_00004.asd.ref
350	 0.171712189912796 
351	 0.165253907442093 
352	 0.163076862692833 
353	 0.170326724648476 
354	 0.182964846491814 
355	 0.180589005351067 
356	 0.173875093460083 
357	 0.170093357563019 
358	 0.172790184617043 
359	 0.175412774085999 
360	 0.176650121808052 
361	 0.176761284470558 
362	 0.176750421524048 
363	 0.17504358291626 
364	 0.177209869027138 
365	 0.181642472743988 
366	 0.176261618733406 
367	 0.17618054151535 
368	 0.178807079792023 
369	 0.17935785651207 
370	 0.179377481341362 
371	 0.1791130900383 
372	 0.180288642644882 
373	 0.183981597423553 
374	 0.183041840791702 
375	 0.183262646198273 
376	 0.185108229517937 
377	 0.182956010103226 
378	 0.182576417922974 
379	 0.182957991957664 
380	 0.182982683181763 
381	 0.184470623731613 
382	 0.185234233736992 
383	 0.185199975967407 
384	 0.185159996151924 
385	 0.185717165470123 
386	 0.186616182327271 
387	 0.18706077337265 
388	 0.186049059033394 
389	 0.18622812628746 
390	 0.186055123806 
391	 0.185230597853661 
392	 0.187645360827446 
393	 0.188464403152466 
394	 0.187284350395203 
395	 0.185641691088676 
396	 0.186328172683716 
397	 0.187436267733574 
398	 0.188080355525017 
399	 0.188317909836769 
400	 0.187281459569931 
401	 0.186878234148026 
402	 0.187941893935204 
403	 0.188903346657753 
404	 0.18871608376503 
405	 0.188407927751541 
406	 0.189052850008011 
407	 0.189192086458206 
408	 0.18853272497654 
409	 0.187776997685432 
410	 0.18813918530941 
411	 0.189187556505203 
412	 0.189688250422478 
413	 0.189214155077934 
414	 0.188650369644165 
415	 0.188576877117157 
416	 0.189074859023094 
417	 0.189805313944817 
418	 0.189748600125313 
419	 0.18915131688118 
420	 0.188894808292389 
421	 0.189888134598732 
422	 0.189641520380974 
423	 0.189457803964615 
424	 0.189906746149063 
425	 0.189806625247002 
426	 0.189747020602226 
427	 0.189575999975204 
428	 0.189246043562889 
429	 0.189770683646202 
430	 0.189897134900093 
431	 0.189735099673271 
432	 0.190152198076248 
433	 0.190446615219116 
434	 0.190498039126396 
435	 0.190372362732887 
436	 0.190284729003906 
437	 0.190205112099648 
438	 0.190538331866264 
439	 0.191328600049019 
440	 0.190994396805763 
441	 0.190562173724175 
442	 0.190467029809952 
443	 0.190665796399117 
444	 0.190950393676758 
445	 0.191152021288872 
446	 0.191137164831161 
447	 0.19074635207653 
448	 0.19098761677742 
449	 0.191390186548233 
450	 0.191290274262428 
451	 0.191124945878983 
452	 0.191093266010284 
453	 0.191235437989235 
454	 0.191442459821701 
455	 0.191209375858307 
456	 0.191187024116516 
457	 0.191544488072395 
458	 0.191194877028465 
459	 0.191155418753624 
460	 0.191268131136894 
461	 0.191138952970505 
462	 0.191194459795952 
463	 0.191356629133224 
464	 0.191432520747185 
465	 0.191185489296913 
466	 0.191040635108948 
467	 0.191087648272514 
468	 0.191259562969208 
469	 0.191315546631813 
470	 0.191196411848068 
471	 0.19097463786602 
472	 0.190797865390778 
473	 0.190822377800941 
474	 0.190886825323105 
475	 0.19089862704277 
476	 0.190870091319084 
477	 0.190963074564934 
478	 0.191000238060951 
479	 0.190881907939911 
480	 0.190915524959564 
481	 0.191017255187035 
482	 0.191079005599022 
483	 0.191025480628014 
484	 0.191171333193779 
485	 0.191198840737343 
486	 0.191059142351151 
487	 0.191133946180344 
488	 0.191135257482529 
489	 0.191142916679382 
490	 0.19124861061573 
491	 0.191276028752327 
492	 0.19120554625988 
493	 0.191142588853836 
494	 0.191238895058632 
495	 0.191258385777473 
496	 0.191275730729103 
497	 0.191287279129028 
498	 0.191078379750252 
499	 0.191076308488846 
500	 0.191133141517639 
501	 0.191025242209435 
502	 0.19103729724884 
503	 0.191029876470566 
504	 0.190969988703728 
505	 0.190917700529099 
506	 0.190833047032356 
507	 0.1906778216362 
508	 0.190510720014572 
509	 0.190613180398941 
510	 0.190654873847961 
511	 0.190547108650208 
512	 0.190348222851753 
513	 0.190359264612198 
514	 0.190416872501373 
515	 0.190388470888138 
516	 0.190217271447182 
517	 0.190170586109161 
518	 0.190159127116203 
519	 0.190091982483864 
520	 0.190092876553535 
521	 0.190002933144569 
522	 0.189853429794312 
523	 0.189762875437737 
524	 0.189754590392113 
525	 0.189725980162621 
526	 0.189627021551132 
527	 0.189489796757698 
528	 0.189409166574478 
529	 0.189389854669571 
530	 0.1893719881773 
531	 0.18917128443718 
532	 0.188986122608185 
533	 0.188863202929497 
534	 0.188750341534615 
535	 0.188688471913338 
536	 0.188621014356613 
537	 0.188519045710564 
538	 0.188420385122299 
539	 0.188292920589447 
540	 0.18816851079464 
541	 0.188073739409447 
542	 0.187922671437263 
543	 0.187746435403824 
544	 0.187609374523163 
545	 0.187583640217781 
546	 0.187483131885529 
547	 0.187365278601646 
548	 0.18727271258831 
549	 0.187116265296936 
550	 0.186959460377693 
551	 0.186842978000641 
552	 0.186782404780388 
553	 0.186710208654404 
554	 0.18661279976368 
555	 0.186508029699326 
556	 0.186441272497177 
557	 0.186408683657646 
558	 0.186344772577286 
559	 0.186213791370392 
560	 0.186090365052223 
561	 0.186013400554657 
562	 0.185949668288231 
563	 0.185839593410492 
564	 0.18574421107769 
565	 0.185703098773956 
566	 0.185702949762344 
567	 0.185664191842079 
568	 0.185574904084206 
569	 0.185497581958771 
570	 0.185479387640953 
571	 0.185420006513596 
572	 0.185416907072067 
573	 0.185399889945984 
574	 0.185211792588234 
575	 0.185149997472763 
576	 0.185068741440773 
577	 0.184928432106972 
578	 0.185011819005013 
579	 0.184969708323479 
580	 0.184838324785233 
581	 0.184750989079475 
582	 0.184648498892784 
583	 0.184545859694481 
584	 0.184475407004356 
585	 0.184476032853127 
586	 0.184489861130714 
587	 0.184494093060493 
588	 0.184470653533936 
589	 0.184400856494904 
590	 0.18422956764698 
591	 0.184028133749962 
592	 0.183899968862534 
593	 0.183808743953705 
594	 0.183737933635712 
595	 0.183645769953728 
596	 0.183467835187912 
597	 0.183340787887573 
598	 0.183240041136742 
599	 0.183128654956818 
600	 0.183040142059326 
601	 0.182978168129921 
602	 0.182905256748199 
603	 0.182781606912613 
604	 0.182721123099327 
605	 0.182665273547173 
606	 0.182549893856049 
607	 0.182325556874275 
608	 0.182193085551262 
609	 0.182129129767418 
610	 0.182055041193962 
611	 0.181918174028397 
612	 0.1817706823349 
613	 0.181660801172256 
614	 0.181619226932526 
615	 0.181557908654213 
616	 0.181484788656235 
617	 0.181402117013931 
618	 0.181281417608261 
619	 0.181241273880005 
620	 0.181194379925728 
621	 0.181052073836327 
622	 0.180952772498131 
623	 0.180890962481499 
624	 0.180858552455902 
625	 0.180841580033302 
626	 0.180778816342354 
627	 0.180714249610901 
628	 0.180686220526695 
629	 0.180699154734612 
630	 0.180703446269035 
631	 0.18068440258503 
632	 0.180643424391747 
633	 0.180583864450455 
634	 0.180570393800735 
635	 0.180587038397789 
636	 0.18056084215641 
637	 0.180557787418365 
638	 0.18058168888092 
639	 0.18060727417469 
640	 0.180567771196365 
641	 0.180597081780434 
642	 0.180604800581932 
643	 0.180491775274277 
644	 0.180477723479271 
645	 0.18047159910202 
646	 0.180431187152863 
647	 0.180369332432747 
648	 0.180340707302094 
649	 0.180380672216415 
650	 0.180460289120674 
651	 0.180430173873901 
652	 0.180497258901596 
653	 0.18059778213501 
654	 0.180610910058022 
655	 0.180599942803383 
656	 0.180604010820389 
657	 0.180651485919952 
658	 0.180748745799065 
659	 0.180755019187927 
660	 0.180777832865715 
661	 0.180873140692711 
662	 0.180926918983459 
663	 0.180991873145103 
664	 0.181108474731445 
665	 0.181267440319061 
666	 0.181260481476784 
667	 0.181309372186661 
668	 0.181428775191307 
669	 0.181477978825569 
670	 0.181556880474091 
671	 0.181646302342415 
672	 0.181717112660408 
673	 0.181748583912849 
674	 0.181823059916496 
675	 0.181904703378677 
676	 0.181939572095871 
677	 0.181960329413414 
678	 0.181918889284134 
679	 0.181856989860535 
680	 0.181861579418182 
681	 0.181847587227821 
682	 0.181797862052917 
683	 0.181734457612038 
684	 0.18172213435173 
685	 0.181717410683632 
686	 0.181727483868599 
687	 0.181769505143166 
688	 0.181853294372559 
689	 0.181957468390465 
690	 0.182022362947464 
691	 0.181998163461685 
692	 0.182040899991989 
693	 0.182113453745842 
694	 0.182190984487534 
695	 0.182285726070404 
696	 0.182381272315979 
697	 0.182485163211823 
698	 0.182594373822212 
699	 0.182654231786728 
700	 0.182806119322777 
701	 0.182979732751846 
702	 0.183052122592926 
703	 0.183136016130447 
704	 0.183242589235306 
705	 0.18335448205471 
706	 0.183435559272766 
707	 0.183485344052315 
708	 0.183563888072968 
709	 0.18369098007679 
710	 0.183796986937523 
711	 0.183880686759949 
712	 0.183935597538948 
713	 0.183971345424652 
714	 0.18405519425869 
715	 0.184099569916725 
716	 0.184133321046829 
717	 0.184238970279694 
718	 0.184283912181854 
719	 0.18437285721302 
720	 0.18449978530407 
721	 0.184497728943825 
722	 0.184530109167099 
723	 0.18459016084671 
724	 0.184640362858772 
725	 0.184663534164429 
726	 0.184671074151993 
727	 0.184716746211052 
728	 0.184836581349373 
729	 0.184917435050011 
730	 0.184875264763832 
731	 0.184797614812851 
732	 0.184877648949623 
733	 0.184949904680252 
734	 0.184993669390678 
735	 0.18500579893589 
736	 0.184979140758514 
737	 0.18501390516758 
738	 0.185014069080353 
739	 0.184934884309769 
740	 0.185036972165108 
741	 0.185056895017624 
742	 0.184992626309395 
743	 0.184953898191452 
744	 0.184961199760437 
745	 0.184945568442345 
746	 0.184945940971375 
747	 0.185066729784012 
748	 0.185025364160538 
749	 0.184960693120956 
750	 0.184959903359413 
751	 0.184935167431831 
752	 0.184918791055679 
753	 0.184923499822617 
754	 0.184928715229034 
755	 0.184819057583809 
756	 0.184826955199242 
757	 0.184859827160835 
758	 0.184749126434326 
759	 0.184684529900551 
760	 0.184684678912163 
761	 0.184697836637497 
762	 0.184641659259796 
763	 0.184621796011925 
764	 0.184601128101349 
765	 0.184549927711487 
766	 0.184472680091858 
767	 0.184386104345322 
768	 0.184303104877472 
769	 0.184230789542198 
770	 0.184165626764297 
771	 0.184120386838913 
772	 0.18409027159214 
773	 0.18405494093895 
774	 0.183966293931007 
775	 0.183838441967964 
776	 0.183711051940918 
777	 0.183629065752029 
778	 0.183587655425072 
779	 0.183493450284004 
780	 0.183358177542686 
781	 0.183286517858505 
782	 0.183197036385536 
783	 0.183091908693314 
784	 0.182977303862572 
785	 0.182847052812576 
786	 0.182754248380661 
787	 0.182682245969772 
788	 0.182585313916206 
789	 0.182384729385376 
790	 0.182232052087784 
791	 0.182145565748215 
792	 0.18208335340023 
793	 0.181987673044205 
794	 0.181783154606819 
795	 0.181608095765114 
796	 0.181633576750755 
797	 0.181540980935097 
798	 0.181376516819 
799	 0.181202083826065 
800	 0.181062579154968 
801	 0.180910810828209 
802	 0.180758103728294 
803	 0.180638387799263 
804	 0.180594593286514 
805	 0.180482119321823 
806	 0.180377155542374 
807	 0.180310100317001 
808	 0.180156916379929 
809	 0.179960072040558 
810	 0.179782852530479 
811	 0.179664731025696 
812	 0.17957267165184 
813	 0.179438143968582 
814	 0.179288372397423 
815	 0.179160043597221 
816	 0.178976207971573 
817	 0.178821310400963 
818	 0.178699478507042 
819	 0.17857651412487 
820	 0.178463026881218 
821	 0.178317949175835 
822	 0.178164258599281 
823	 0.178058490157127 
824	 0.177951946854591 
825	 0.177828505635262 
826	 0.177671879529953 
827	 0.177474439144135 
828	 0.177324160933495 
829	 0.177245363593102 
830	 0.177177354693413 
831	 0.176984921097755 
832	 0.176804929971695 
833	 0.176662042737007 
834	 0.176535069942474 
835	 0.176368191838264 
836	 0.176310405135155 
837	 0.176224112510681 
838	 0.176030591130257 
839	 0.175911426544189 
840	 0.175771579146385 
841	 0.175653293728828 
842	 0.175585865974426 
843	 0.175467655062675 
844	 0.175366297364235 
845	 0.175256639719009 
846	 0.175116583704948 
847	 0.175039365887642 
848	 0.174922421574593 
849	 0.174782633781433 
850	 0.174669697880745 
851	 0.174543350934982 
852	 0.174464821815491 
853	 0.174400493502617 
854	 0.174291059374809 
855	 0.174203410744667 
856	 0.174052283167839 
857	 0.173872262239456 
858	 0.173760086297989 
859	 0.173724815249443 
860	 0.1737090498209 
861	 0.173648580908775 
862	 0.173506632447243 
863	 0.173387333750725 
864	 0.173279374837875 
865	 0.173170015215874 
866	 0.17305988073349 
867	 0.173006907105446 
868	 0.172918424010277 
869	 0.17281810939312 
870	 0.172813460230827 
871	 0.172809287905693 
872	 0.172751501202583 
873	 0.172636657953262 
874	 0.172512769699097 
875	 0.172473520040512 
876	 0.172447234392166 
877	 0.172413021326065 
878	 0.172405496239662 
879	 0.172329902648926 
880	 0.172218129038811 
881	 0.172132954001427 
882	 0.172127053141594 
883	 0.172059774398804 
884	 0.172005876898766 
885	 0.171977430582047 
886	 0.171911552548409 
887	 0.171902358531952 
888	 0.171932861208916 
889	 0.171933978796005 
890	 0.171827778220177 
891	 0.1717619150877 
892	 0.171673879027367 
893	 0.171583876013756 
894	 0.171593457460403 
895	 0.171597480773926 
896	 0.171626970171928 
897	 0.17165818810463 
898	 0.171624317765236 
899	 0.171630382537842 
900	 0.171605974435806 
901	 0.171528443694115 
902	 0.171448230743408 
903	 0.171497449278831 
904	 0.171564936637878 
905	 0.171593815088272 
906	 0.171597197651863 
907	 0.171585649251938 
908	 0.171618297696114 
909	 0.17164820432663 
910	 0.171587184071541 
911	 0.171550840139389 
912	 0.171574413776398 
913	 0.17158767580986 
914	 0.171508654952049 
915	 0.171497613191605 
916	 0.171521440148354 
917	 0.171555057168007 
918	 0.171584025025368 
919	 0.171604096889496 
920	 0.17162711918354 
921	 0.171636492013931 
922	 0.171610057353973 
923	 0.171540409326553 
924	 0.171563938260078 
925	 0.17166343331337 
926	 0.171759143471718 
927	 0.171787545084953 
928	 0.171770304441452 
929	 0.171782672405243 
930	 0.171846508979797 
931	 0.17184180021286 
932	 0.171849817037582 
933	 0.171913385391235 
934	 0.171998381614685 
935	 0.1719771027565 
936	 0.171904429793358 
937	 0.171895831823349 
938	 0.171989873051643 
939	 0.172104209661484 
940	 0.172111257910728 
941	 0.172067329287529 
942	 0.172040954232216 
943	 0.172071009874344 
944	 0.172146126627922 
945	 0.172178387641907 
946	 0.172159299254417 
947	 0.172142192721367 
948	 0.172163441777229 
949	 0.172154352068901 
950	 0.172089576721191 
951	 0.171996787190437 
952	 0.171983733773232 
953	 0.171955794095993 
954	 0.171916276216507 
955	 0.1718879789114 
956	 0.171856790781021 
957	 0.171857833862305 
958	 0.171924337744713 
959	 0.172000035643578 
960	 0.171929121017456 
961	 0.17187973856926 
962	 0.171855434775352 
963	 0.17182357609272 
964	 0.171771079301834 
965	 0.17187337577343 
966	 0.171985104680061 
967	 0.172009885311127 
968	 0.171960815787315 
969	 0.172031581401825 
970	 0.17220750451088 
971	 0.172312408685684 
972	 0.172256886959076 
973	 0.172328770160675 
974	 0.172364100813866 
975	 0.172418132424355 
976	 0.172493413090706 
977	 0.172452986240387 
978	 0.172480955719948 
979	 0.172547623515129 
980	 0.172559499740601 
981	 0.172454863786697 
982	 0.17247174680233 
983	 0.17249621450901 
984	 0.172454133629799 
985	 0.172348394989967 
986	 0.172286152839661 
987	 0.172306388616562 
988	 0.172372356057167 
989	 0.172400966286659 
990	 0.172307193279266 
991	 0.17233407497406 
992	 0.172298014163971 
993	 0.172177836298943 
994	 0.172163888812065 
995	 0.17220151424408 
996	 0.172132536768913 
997	 0.172054708003998 
998	 0.172115668654442 
999	 0.17214173078537 
1000	 0.17207595705986 
1001	 0.1695746332407 
1002	 0.169576600193977 
1003	 0.169618606567383 
1004	 0.169589012861252 
1005	 0.169668510556221 
1006	 0.169627338647842 
1007	 0.169555008411407 
1008	 0.169471830129623 
1009	 0.169367894530296 
1010	 0.169185385107994 
1011	 0.169116482138634 
1012	 0.169100195169449 
1013	 0.169059216976166 
1014	 0.169029086828232 
1015	 0.169015496969223 
1016	 0.169040068984032 
1017	 0.168982356786728 
1018	 0.168897449970245 
1019	 0.168892830610275 
1020	 0.168763637542725 
1021	 0.16861979663372 
1022	 0.168596535921097 
1023	 0.168485417962074 
1024	 0.168414354324341 
1025	 0.168379351496696 
1026	 0.168341621756554 
1027	 0.168324500322342 
1028	 0.168272137641907 
1029	 0.168240651488304 
1030	 0.168095946311951 
1031	 0.167944237589836 
1032	 0.167849093675613 
1033	 0.167812660336494 
1034	 0.167841076850891 
1035	 0.167867705225945 
1036	 0.167866393923759 
1037	 0.167759403586388 
1038	 0.167574435472488 
1039	 0.167486608028412 
1040	 0.167446091771126 
1041	 0.167354643344879 
1042	 0.167264550924301 
1043	 0.167244240641594 
1044	 0.167247459292412 
1045	 0.167192026972771 
1046	 0.167164713144302 
1047	 0.167081832885742 
1048	 0.166909068822861 
1049	 0.166694909334183 
1050	 0.166617691516876 
1051	 0.166546985507011 
1052	 0.166390746831894 
1053	 0.166303634643555 
1054	 0.166262045502663 
1055	 0.166267871856689 
1056	 0.166229709982872 
1057	 0.166241928935051 
1058	 0.166196212172508 
1059	 0.166108295321465 
1060	 0.166019514203072 
1061	 0.165916129946709 
1062	 0.165827423334122 
1063	 0.165743991732597 
1064	 0.16560035943985 
1065	 0.165519833564758 
1066	 0.165491610765457 
1067	 0.165449216961861 
1068	 0.165410563349724 
1069	 0.165362074971199 
1070	 0.165312692523003 
1071	 0.165260285139084 
1072	 0.165215775370598 
1073	 0.165125623345375 
1074	 0.165025353431702 
1075	 0.164934039115906 
1076	 0.164817780256271 
1077	 0.164756968617439 
1078	 0.164691716432571 
1079	 0.164639949798584 
1080	 0.16464751958847 
1081	 0.16460020840168 
1082	 0.164519742131233 
1083	 0.16447339951992 
1084	 0.164408028125763 
1085	 0.164337754249573 
1086	 0.164287865161896 
1087	 0.164285659790039 
1088	 0.164245754480362 
1089	 0.164198607206345 
1090	 0.164131611585617 
1091	 0.164032891392708 
1092	 0.163970693945885 
1093	 0.163880944252014 
1094	 0.163818448781967 
1095	 0.163741946220398 
1096	 0.163655951619148 
1097	 0.163630425930023 
1098	 0.163572058081627 
1099	 0.163565278053284 
1100	 0.163583561778069 
1101	 0.163552790880203 
1102	 0.163492172956467 
1103	 0.163410142064095 
1104	 0.163313046097755 
1105	 0.16323022544384 
1106	 0.163151904940605 
1107	 0.163123399019241 
1108	 0.163060694932938 
1109	 0.162922933697701 
1110	 0.16286526620388 
1111	 0.162861794233322 
1112	 0.162869840860367 
1113	 0.162896990776062 
1114	 0.162853360176086 
1115	 0.162765994668007 
1116	 0.162662759423256 
1117	 0.162579104304314 
1118	 0.162506818771362 
1119	 0.162485852837563 
1120	 0.16243588924408 
1121	 0.162383064627647 
1122	 0.162383228540421 
1123	 0.162359803915024 
1124	 0.162315741181374 
1125	 0.162286654114723 
1126	 0.162195101380348 
1127	 0.162101656198502 
1128	 0.162052869796753 
1129	 0.161964684724808 
1130	 0.161900505423546 
1131	 0.161882624030113 
1132	 0.161826118826866 
1133	 0.161788448691368 
1134	 0.161755293607712 
1135	 0.161747470498085 
1136	 0.161687597632408 
1137	 0.161652863025665 
1138	 0.161606028676033 
1139	 0.161535710096359 
1140	 0.161521956324577 
1141	 0.161473631858826 
1142	 0.161426544189453 
1143	 0.161415874958038 
1144	 0.161361753940582 
1145	 0.16132265329361 
1146	 0.161302581429482 
1147	 0.161246910691261 
1148	 0.161195859313011 
1149	 0.161165118217468 
1150	 0.161141455173492 
1151	 0.161096677184105 
1152	 0.161048054695129 
1153	 0.161049395799637 
1154	 0.161018267273903 
1155	 0.160960853099823 
1156	 0.160950317978859 
1157	 0.160907223820686 
1158	 0.160820350050926 
1159	 0.160763055086136 
1160	 0.160736054182053 
1161	 0.160708039999008 
1162	 0.160687237977982 
1163	 0.160688295960426 
1164	 0.160664618015289 
1165	 0.160640120506287 
1166	 0.160604417324066 
1167	 0.160545751452446 
1168	 0.160508900880814 
1169	 0.160481944680214 
1170	 0.160437196493149 
1171	 0.160398557782173 
1172	 0.160376876592636 
1173	 0.160360023379326 
1174	 0.160335600376129 
1175	 0.16030940413475 
1176	 0.160287082195282 
1177	 0.160219848155975 
1178	 0.160176709294319 
1179	 0.160166934132576 
1180	 0.160129740834236 
1181	 0.16013614833355 
1182	 0.160122454166412 
1183	 0.160094559192657 
1184	 0.160053700208664 
1185	 0.160034731030464 
1186	 0.160013288259506 
1187	 0.159991443157196 
1188	 0.159994825720787 
1189	 0.159940108656883 
1190	 0.159875765442848 
1191	 0.159841924905777 
1192	 0.159794256091118 
1193	 0.159782111644745 
1194	 0.159785866737366 
1195	 0.159756883978844 
1196	 0.159741818904877 
1197	 0.159698471426964 
1198	 0.159648448228836 
1199	 0.159647405147552 
1200	 0.159667655825615 
1201	 0.159698963165283 
1202	 0.159697771072388 
1203	 0.159692674875259 
1204	 0.159681499004364 
1205	 0.15962578356266 
1206	 0.159591645002365 
1207	 0.159586548805237 
1208	 0.159569546580315 
1209	 0.159481704235077 
1210	 0.159453928470612 
1211	 0.15944904088974 
1212	 0.159411713480949 
1213	 0.159388571977615 
1214	 0.159371986985207 
1215	 0.159368470311165 
1216	 0.159365519881248 
1217	 0.159331530332565 
1218	 0.159301161766052 
1219	 0.15927828848362 
1220	 0.159207761287689 
1221	 0.159180223941803 
1222	 0.159214094281197 
1223	 0.159205690026283 
1224	 0.159182637929916 
1225	 0.159159407019615 
1226	 0.159128040075302 
1227	 0.159090757369995 
1228	 0.159086421132088 
1229	 0.159065783023834 
1230	 0.159037366509438 
1231	 0.159024849534035 
1232	 0.1589694917202 
1233	 0.158923044800758 
1234	 0.15888811647892 
1235	 0.158826887607574 
1236	 0.158803626894951 
1237	 0.158786922693253 
1238	 0.158768951892853 
1239	 0.158786058425903 
1240	 0.158763438463211 
1241	 0.15871299803257 
1242	 0.158672466874123 
1243	 0.158612340688705 
1244	 0.158576592803001 
1245	 0.158561617136002 
1246	 0.158519357442856 
1247	 0.158466309309006 
1248	 0.158429130911827 
1249	 0.158387035131454 
1250	 0.158370822668076 
1251	 0.158375814557076 
1252	 0.158377006649971 
1253	 0.158369615674019 
1254	 0.158377662301064 
1255	 0.158380225300789 
1256	 0.158354580402374 
1257	 0.158331573009491 
1258	 0.158317849040031 
1259	 0.158289581537247 
1260	 0.158248201012611 
1261	 0.158233553171158 
1262	 0.158204585313797 
1263	 0.158200353384018 
1264	 0.158269956707954 
1265	 0.158276662230492 
1266	 0.158261924982071 
1267	 0.158237472176552 
1268	 0.158145278692245 
1269	 0.158093616366386 
1270	 0.158068120479584 
1271	 0.158035084605217 
1272	 0.157974347472191 
1273	 0.157974809408188 
1274	 0.157946109771729 
1275	 0.157906651496887 
1276	 0.15788733959198 
1277	 0.157794430851936 
1278	 0.157686606049538 
1279	 0.157645016908646 
1280	 0.157619029283524 
1281	 0.157653242349625 
1282	 0.157630234956741 
1283	 0.157604306936264 
1284	 0.157561212778091 
1285	 0.157474786043167 
1286	 0.157415509223938 
1287	 0.157376080751419 
1288	 0.157328635454178 
1289	 0.157262876629829 
1290	 0.157218441367149 
1291	 0.157191008329391 
1292	 0.157157137989998 
1293	 0.157122418284416 
1294	 0.1570965051651 
1295	 0.157040908932686 
1296	 0.156998440623283 
1297	 0.156959682703018 
1298	 0.156890422105789 
1299	 0.156839713454247 
1300	 0.156777665019035 
1301	 0.156707793474197 
1302	 0.156685397028923 
1303	 0.156654670834541 
1304	 0.156654611229897 
1305	 0.156599119305611 
1306	 0.156507104635239 
1307	 0.156454801559448 
1308	 0.156386807560921 
1309	 0.156342193484306 
1310	 0.156348541378975 
1311	 0.156315535306931 
1312	 0.15626035630703 
1313	 0.15621791779995 
1314	 0.156167089939117 
1315	 0.156130447983742 
1316	 0.15613217651844 
1317	 0.156063601374626 
1318	 0.155992209911346 
1319	 0.155987858772278 
1320	 0.155996605753899 
1321	 0.156016558408737 
1322	 0.156009271740913 
1323	 0.155983135104179 
1324	 0.15593633055687 
1325	 0.155883893370628 
1326	 0.155847445130348 
1327	 0.155854806303978 
1328	 0.155806064605713 
1329	 0.155718937516212 
1330	 0.155669286847115 
1331	 0.155604511499405 
1332	 0.155575960874557 
1333	 0.155591353774071 
1334	 0.155572488903999 
1335	 0.155562326312065 
1336	 0.155538246035576 
1337	 0.155479475855827 
1338	 0.155449494719505 
1339	 0.155442461371422 
1340	 0.155419811606407 
1341	 0.155404806137085 
1342	 0.155375063419342 
1343	 0.155327841639519 
1344	 0.155284002423286 
1345	 0.155290901660919 
1346	 0.155281916260719 
1347	 0.155272856354713 
1348	 0.15529590845108 
1349	 0.155272752046585 
1350	 0.155223146080971 
1351	 0.155195087194443 
1352	 0.155183017253876 
1353	 0.155130863189697 
1354	 0.155047863721848 
1355	 0.155018866062164 
1356	 0.154996126890182 
1357	 0.154951751232147 
1358	 0.154953002929688 
1359	 0.154904037714005 
1360	 0.154799714684486 
1361	 0.154717430472374 
1362	 0.154614672064781 
1363	 0.154546141624451 
1364	 0.154517248272896 
1365	 0.154442593455315 
1366	 0.154377952218056 
1367	 0.154296875 
1368	 0.15417505800724 
1369	 0.154050841927528 
1370	 0.153968885540962 
1371	 0.153836786746979 
1372	 0.15371073782444 
1373	 0.15360863506794 
1374	 0.15351577103138 
1375	 0.15344874560833 
1376	 0.153383731842041 
1377	 0.153262913227081 
1378	 0.153121039271355 
1379	 0.15298655629158 
1380	 0.152817338705063 
1381	 0.152652427554131 
1382	 0.152412295341492 
1383	 0.152156427502632 
1384	 0.151786297559738 
1385	 0.151384875178337 
1386	 0.150831654667854 
1387	 0.150202170014381 
1388	 0.149423882365227 
1389	 0.148499771952629 
1390	 0.14748740196228 
1391	 0.146327808499336 
1392	 0.145130977034569 
1393	 0.143788769841194 
1394	 0.142507627606392 
1395	 0.141159206628799 
1396	 0.139865279197693 
1397	 0.138546422123909 
1398	 0.137341693043709 
1399	 0.136168494820595 
1400	 0.13510750234127 
1401	 0.134150370955467 
1402	 0.133261010050774 
1403	 0.132444888353348 
1404	 0.131688550114632 
1405	 0.131011918187141 
1406	 0.130439594388008 
1407	 0.129933059215546 
1408	 0.129502788186073 
1409	 0.129209235310555 
1410	 0.129028901457787 
1411	 0.129040777683258 
1412	 0.129177629947662 
1413	 0.129576310515404 
1414	 0.130174919962883 
1415	 0.130942970514297 
1416	 0.131973505020142 
1417	 0.133045613765717 
1418	 0.134328678250313 
1419	 0.13555184006691 
1420	 0.136904552578926 
1421	 0.138130247592926 
1422	 0.139357775449753 
1423	 0.140466034412384 
1424	 0.141537889838219 
1425	 0.142470806837082 
1426	 0.143287926912308 
1427	 0.144019708037376 
1428	 0.144623592495918 
1429	 0.145174771547318 
1430	 0.145640254020691 
1431	 0.146057665348053 
1432	 0.146394446492195 
1433	 0.146697223186493 
1434	 0.146949827671051 
1435	 0.147151842713356 
1436	 0.147317409515381 
1437	 0.147454261779785 
1438	 0.147580906748772 
1439	 0.14767399430275 
1440	 0.147746384143829 
1441	 0.147804871201515 
1442	 0.147829160094261 
1443	 0.147853538393974 
1444	 0.147897690534592 
1445	 0.147926479578018 
1446	 0.147933408617973 
1447	 0.147924154996872 
1448	 0.147926926612854 
1449	 0.147911429405212 
1450	 0.14791239798069 
1451	 0.147938430309296 
1452	 0.147936135530472 
1453	 0.14790552854538 
1454	 0.147907823324203 
1455	 0.147936746478081 
1456	 0.147926598787308 
1457	 0.147908091545105 
1458	 0.147893235087395 
1459	 0.147832080721855 
1460	 0.147824674844742 
1461	 0.14787469804287 
1462	 0.147880554199219 
1463	 0.147874280810356 
1464	 0.147882431745529 
1465	 0.147888690233231 
1466	 0.147884801030159 
1467	 0.147885113954544 
1468	 0.147887870669365 
1469	 0.14788082242012 
1470	 0.147868722677231 
1471	 0.147863909602165 
1472	 0.147853031754494 
1473	 0.147810593247414 
1474	 0.147795498371124 
1475	 0.147782221436501 
1476	 0.14781579375267 
1477	 0.147848799824715 
1478	 0.147868916392326 
1479	 0.147859424352646 
1480	 0.147827818989754 
1481	 0.147801488637924 
1482	 0.147771954536438 
1483	 0.147759184241295 
1484	 0.147744834423065 
1485	 0.147698730230331 
1486	 0.147660329937935 
1487	 0.147626399993896 
1488	 0.147591814398766 
1489	 0.147579088807106 
1490	 0.147563233971596 
1491	 0.147529602050781 
1492	 0.147493302822113 
1493	 0.147464022040367 
1494	 0.147438526153564 
1495	 0.147389084100723 
1496	 0.147323980927467 
1497	 0.147287577390671 
1498	 0.147249400615692 
1499	 0.147201791405678 
1500	 0.147185370326042 
1501	 0.147133260965347 
1502	 0.147025793790817 
1503	 0.146971419453621 
1504	 0.146950945258141 
1505	 0.146890908479691 
1506	 0.146824672818184 
1507	 0.146779209375381 
1508	 0.146723017096519 
1509	 0.14666773378849 
1510	 0.146641001105309 
1511	 0.146578103303909 
1512	 0.146467730402946 
1513	 0.146400600671768 
1514	 0.146363794803619 
1515	 0.146310299634933 
1516	 0.146257802844048 
1517	 0.146198555827141 
1518	 0.146116673946381 
1519	 0.146058291196823 
1520	 0.146018624305725 
1521	 0.1459731310606 
1522	 0.145947054028511 
1523	 0.145891889929771 
1524	 0.145809322595596 
1525	 0.145752295851707 
1526	 0.145688086748123 
1527	 0.145628064870834 
1528	 0.145597949624062 
1529	 0.145545065402985 
1530	 0.145472705364227 
1531	 0.145408302545547 
1532	 0.145354509353638 
1533	 0.145305931568146 
1534	 0.145279109477997 
1535	 0.145272180438042 
1536	 0.145226657390594 
1537	 0.145163223147392 
1538	 0.145134791731834 
1539	 0.145091474056244 
1540	 0.145071044564247 
1541	 0.145089104771614 
1542	 0.14503687620163 
1543	 0.144951835274696 
1544	 0.144919633865356 
1545	 0.144865751266479 
1546	 0.144795194268227 
1547	 0.144784107804298 
1548	 0.144738435745239 
1549	 0.144664078950882 
1550	 0.144633874297142 
1551	 0.144592970609665 
1552	 0.144533067941666 
1553	 0.144467994570732 
1554	 0.1444191634655 
1555	 0.144376963376999 
1556	 0.14431469142437 
1557	 0.144288569688797 
1558	 0.144309356808662 
1559	 0.144301310181618 
1560	 0.144308283925056 
1561	 0.144336134195328 
1562	 0.144275456666946 
1563	 0.144215881824493 
1564	 0.144215628504753 
1565	 0.144186899065971 
1566	 0.144157484173775 
1567	 0.144155636429787 
1568	 0.144134402275085 
1569	 0.144088238477707 
1570	 0.144063696265221 
1571	 0.144052296876907 
1572	 0.144020095467567 
1573	 0.143979594111443 
1574	 0.14394211769104 
1575	 0.143897876143456 
1576	 0.143873363733292 
1577	 0.143860414624214 
1578	 0.143840059638023 
1579	 0.143816977739334 
1580	 0.143801748752594 
1581	 0.143792688846588 
1582	 0.143779620528221 
1583	 0.143774405121803 
1584	 0.143762305378914 
1585	 0.143744751811028 
1586	 0.14371831715107 
1587	 0.143684476613998 
1588	 0.143662422895432 
1589	 0.143629178404808 
1590	 0.143623396754265 
1591	 0.143642827868462 
1592	 0.143641918897629 
1593	 0.143652021884918 
1594	 0.143638759851456 
1595	 0.143597006797791 
1596	 0.143585309386253 
1597	 0.143582597374916 
1598	 0.143571898341179 
1599	 0.143579617142677 
1600	 0.143560156226158 
1601	 0.143509835004807 
1602	 0.143488377332687 
1603	 0.143477663397789 
1604	 0.143452346324921 
1605	 0.143433421850204 
1606	 0.14339978992939 
1607	 0.1433394998312 
1608	 0.143307730555534 
1609	 0.143289789557457 
1610	 0.143265530467033 
1611	 0.143241822719574 
1612	 0.143227979540825 
1613	 0.143217980861664 
1614	 0.143206477165222 
1615	 0.143220797181129 
1616	 0.143201291561127 
1617	 0.143149197101593 
1618	 0.143131420016289 
1619	 0.143113240599632 
1620	 0.143086642026901 
1621	 0.143078327178955 
1622	 0.143052935600281 
1623	 0.143017008900642 
1624	 0.142981365323067 
1625	 0.142921075224876 
1626	 0.142904609441757 
1627	 0.142919629812241 
1628	 0.14289379119873 
1629	 0.142878994345665 
1630	 0.142860636115074 
1631	 0.142797693610191 
1632	 0.142764881253242 
1633	 0.142771109938622 
1634	 0.142750635743141 
1635	 0.142727643251419 
1636	 0.142692625522614 
1637	 0.142622902989388 
1638	 0.142594546079636 
1639	 0.142585054039955 
1640	 0.142551690340042 
1641	 0.142538040876389 
1642	 0.142512515187263 
1643	 0.142452448606491 
1644	 0.142414703965187 
1645	 0.142398402094841 
1646	 0.142373844981194 
1647	 0.142329394817352 
1648	 0.142321795225143 
1649	 0.142344743013382 
1650	 0.142339155077934 
1651	 0.142355740070343 
1652	 0.142331004142761 
1653	 0.142264574766159 
1654	 0.142224341630936 
1655	 0.142171457409859 
1656	 0.142116099596024 
1657	 0.14206737279892 
1658	 0.142037153244019 
1659	 0.142007201910019 
1660	 0.142000585794449 
1661	 0.142015904188156 
1662	 0.142006695270538 
1663	 0.142015695571899 
1664	 0.141987919807434 
1665	 0.141918450593948 
1666	 0.14188639819622 
1667	 0.141861662268639 
1668	 0.141819477081299 
1669	 0.141811549663544 
1670	 0.141782641410828 
1671	 0.141703307628632 
1672	 0.141655191779137 
1673	 0.141622245311737 
1674	 0.141567021608353 
1675	 0.141541019082069 
1676	 0.141520261764526 
1677	 0.141479521989822 
1678	 0.141481667757034 
1679	 0.141493171453476 
1680	 0.141477704048157 
1681	 0.141469195485115 
1682	 0.141443997621536 
1683	 0.141408696770668 
1684	 0.141387239098549 
1685	 0.141358748078346 
1686	 0.141357094049454 
1687	 0.141339957714081 
1688	 0.141278937458992 
1689	 0.141268387436867 
1690	 0.141241624951363 
1691	 0.14119066298008 
1692	 0.141193255782127 
1693	 0.141181647777557 
1694	 0.141154438257217 
1695	 0.141113609075546 
1696	 0.141042724251747 
1697	 0.140965476632118 
1698	 0.14089147746563 
1699	 0.140872210264206 
1700	 0.140859499573708 
1701	 0.140821471810341 
1702	 0.140811830759048 
1703	 0.140758827328682 
1704	 0.140697583556175 
1705	 0.140709578990936 
1706	 0.140683725476265 
1707	 0.140644043684006 
1708	 0.140638619661331 
1709	 0.140574723482132 
1710	 0.140527233481407 
1711	 0.14054773747921 
1712	 0.14054399728775 
1713	 0.140515729784966 
1714	 0.14049232006073 
1715	 0.140420451760292 
1716	 0.14035239815712 
1717	 0.140343964099884 
1718	 0.140336006879807 
1719	 0.140343070030212 
1720	 0.140316992998123 
1721	 0.140245884656906 
1722	 0.140195727348328 
1723	 0.140122041106224 
1724	 0.140068486332893 
1725	 0.140067473053932 
1726	 0.140001192688942 
1727	 0.139955535531044 
1728	 0.139903381466866 
1729	 0.139878034591675 
1730	 0.139899954199791 
1731	 0.139886438846588 
1732	 0.139859959483147 
1733	 0.13981582224369 
1734	 0.139761433005333 
1735	 0.139701619744301 
1736	 0.139629036188126 
1737	 0.139582648873329 
1738	 0.139512330293655 
1739	 0.13948118686676 
1740	 0.139432087540627 
1741	 0.139363631606102 
1742	 0.139320179820061 
1743	 0.139243990182877 
1744	 0.139195263385773 
1745	 0.139168426394463 
1746	 0.139116302132607 
1747	 0.139090284705162 
1748	 0.139049887657166 
1749	 0.138997659087181 
1750	 0.138923302292824 
1751	 0.138841465115547 
1752	 0.138778865337372 
1753	 0.138751223683357 
1754	 0.13876074552536 
1755	 0.138730376958847 
1756	 0.138703659176826 
1757	 0.13863442838192 
1758	 0.138522952795029 
1759	 0.138476803898811 
1760	 0.138461962342262 
1761	 0.138475596904755 
1762	 0.138499468564987 
1763	 0.138501316308975 
1764	 0.138468936085701 
1765	 0.138403177261353 
1766	 0.138363674283028 
1767	 0.138296857476234 
1768	 0.138218149542809 
1769	 0.138214915990829 
1770	 0.138183906674385 
1771	 0.138143301010132 
1772	 0.138119295239449 
1773	 0.138041406869888 
1774	 0.137983113527298 
1775	 0.137943536043167 
1776	 0.137898683547974 
1777	 0.137846902012825 
1778	 0.137774348258972 
1779	 0.137716144323349 
1780	 0.137667641043663 
1781	 0.137658789753914 
1782	 0.137654080986977 
1783	 0.137682378292084 
1784	 0.137731239199638 
1785	 0.137684062123299 
1786	 0.13762004673481 
1787	 0.137555003166199 
1788	 0.137433901429176 
1789	 0.137346640229225 
1790	 0.137281104922295 
1791	 0.13720341026783 
1792	 0.137152880430222 
1793	 0.13712814450264 
1794	 0.137131929397583 
1795	 0.137148886919022 
1796	 0.137165799736977 
1797	 0.137143835425377 
1798	 0.137070521712303 
1799	 0.136986836791039 
1800	 0.136863857507706 
1801	 0.136758536100388 
1802	 0.136702075600624 
1803	 0.136620342731476 
1804	 0.1365637332201 
1805	 0.136538803577423 
1806	 0.136459231376648 
1807	 0.136409997940063 
1808	 0.136407136917114 
1809	 0.136347427964211 
1810	 0.136322021484375 
1811	 0.136302381753922 
1812	 0.136261284351349 
1813	 0.136243507266045 
1814	 0.13619190454483 
1815	 0.136122941970825 
1816	 0.136057361960411 
1817	 0.135983631014824 
1818	 0.135931938886642 
1819	 0.135898292064667 
1820	 0.135848149657249 
1821	 0.135856509208679 
1822	 0.135845899581909 
1823	 0.135772049427032 
1824	 0.135768041014671 
1825	 0.135724276304245 
1826	 0.13561974465847 
1827	 0.135605007410049 
1828	 0.135560467839241 
1829	 0.135480806231499 
1830	 0.135454297065735 
1831	 0.135902017354965 
1832	 0.1358712464571 
1833	 0.135826990008354 
1834	 0.135724097490311 
1835	 0.135659232735634 
1836	 0.135630995035172 
1837	 0.135587230324745 
1838	 0.135531768202782 
1839	 0.135476693511009 
1840	 0.135411977767944 
1841	 0.135380953550339 
1842	 0.135292485356331 
1843	 0.13517951965332 
1844	 0.135108232498169 
1845	 0.135075628757477 
1846	 0.135033741593361 
1847	 0.135011583566666 
1848	 0.134940102696419 
1849	 0.134937405586243 
1850	 0.134897246956825 
1851	 0.134814381599426 
1852	 0.134778156876564 
1853	 0.134693652391434 
1854	 0.134577766060829 
1855	 0.134505286812782 
1856	 0.134473010897636 
1857	 0.134440243244171 
1858	 0.134462207555771 
1859	 0.134361162781715 
1860	 0.134310320019722 
1861	 0.134227722883224 
1862	 0.134092584252357 
1863	 0.134139880537987 
1864	 0.134146735072136 
1865	 0.134055063128471 
1866	 0.133995488286018 
1867	 0.133945822715759 
1868	 0.133827149868011 
1869	 0.133776590228081 
1870	 0.133773162961006 
1871	 0.133758157491684 
1872	 0.133770748972893 
1873	 0.133663013577461 
1874	 0.133501917123795 
1875	 0.133348703384399 
1876	 0.133121252059937 
1877	 0.132955208420753 
1878	 0.132816582918167 
1879	 0.132714092731476 
1880	 0.132564038038254 
1881	 0.132476225495338 
1882	 0.132369324564934 
1883	 0.132194370031357 
1884	 0.132030054926872 
1885	 0.131877928972244 
1886	 0.131685748696327 
1887	 0.131515681743622 
1888	 0.131328046321869 
1889	 0.131158605217934 
1890	 0.130886763334274 
1891	 0.130676835775375 
1892	 0.130503624677658 
1893	 0.130260124802589 
1894	 0.130056008696556 
1895	 0.129829421639442 
1896	 0.129534110426903 
1897	 0.129258990287781 
1898	 0.1290572732687 
1899	 0.128851011395454 
1900	 0.128646582365036 
1901	 0.128432750701904 
1902	 0.12830576300621 
1903	 0.128172919154167 
1904	 0.128008484840393 
1905	 0.127874806523323 
1906	 0.1277125030756 
1907	 0.127492308616638 
1908	 0.127311959862709 
1909	 0.127214014530182 
1910	 0.127126514911652 
1911	 0.127079829573631 
1912	 0.127035781741142 
1913	 0.126943871378899 
1914	 0.126817539334297 
1915	 0.126714468002319 
1916	 0.126641929149628 
1917	 0.126629397273064 
1918	 0.126714155077934 
1919	 0.126748487353325 
1920	 0.126686826348305 
1921	 0.126657217741013 
1922	 0.126600876450539 
1923	 0.126456066966057 
1924	 0.126337245106697 
1925	 0.126398280262947 
1926	 0.126415431499481 
1927	 0.126441299915314 
1928	 0.126462414860725 
1929	 0.126343503594398 
1930	 0.126240804791451 
1931	 0.126206427812576 
1932	 0.126201689243317 
1933	 0.126169845461845 
1934	 0.126170963048935 
1935	 0.126152575016022 
1936	 0.126041069626808 
1937	 0.125874057412148 
1938	 0.125833332538605 
1939	 0.125876620411873 
1940	 0.125921174883842 
1941	 0.125993251800537 
1942	 0.126023411750793 
1943	 0.125920236110687 
1944	 0.125858202576637 
1945	 0.125773191452026 
1946	 0.125766858458519 
1947	 0.125801965594292 
1948	 0.125800654292107 
1949	 0.125792726874352 
1950	 0.125767037272453 
1951	 0.125670671463013 
1952	 0.125624269247055 
1953	 0.125654920935631 
1954	 0.125654861330986 
1955	 0.125629082322121 
1956	 0.125575810670853 
1957	 0.125556156039238 
1958	 0.125577136874199 
1959	 0.125541612505913 
1960	 0.125470086932182 
1961	 0.125441178679466 
1962	 0.125457540154457 
1963	 0.125401362776756 
1964	 0.125436529517174 
1965	 0.125555261969566 
1966	 0.125475287437439 
1967	 0.125315353274345 
1968	 0.125229105353355 
1969	 0.125068038702011 
1970	 0.125002607703209 
1971	 0.125065252184868 
1972	 0.125078797340393 
1973	 0.12512680888176 
1974	 0.125105351209641 
1975	 0.125031381845474 
1976	 0.12494320422411 
1977	 0.124886155128479 
1978	 0.124855123460293 
1979	 0.124893710017204 
1980	 0.12495768815279 
1981	 0.124944500625134 
1982	 0.124870516359806 
1983	 0.124831646680832 
1984	 0.12471054494381 
1985	 0.124703630805016 
1986	 0.124777726829052 
1987	 0.12486993521452 
1988	 0.124943532049656 
1989	 0.124952077865601 
1990	 0.124907679855824 
1991	 0.124895423650742 
1992	 0.124913766980171 
1993	 0.124994777143002 
1994	 0.125041887164116 
1995	 0.12512694299221 
1996	 0.125126555562019 
1997	 0.124983929097652 
1998	 0.125017821788788 
1999	 0.125133723020554 
2000	 0.125198349356651 
2001	 0.125294730067253 
2002	 0.125464037060738 
2003	 0.125388354063034 
2004	 0.125340804457664 
2005	 0.125510305166245 
2006	 0.125493764877319 
2007	 0.125548779964447 
2008	 0.125703483819962 
2009	 0.125806137919426 
2010	 0.125841751694679 
2011	 0.125944226980209 
2012	 0.126149535179138 
2013	 0.126175448298454 
2014	 0.126165583729744 
2015	 0.126229509711266 
2016	 0.126288846135139 
2017	 0.126375287771225 
2018	 0.126478940248489 
2019	 0.126613482832909 
2020	 0.126736059784889 
2021	 0.126824244856834 
2022	 0.126930862665176 
2023	 0.127086102962494 
2024	 0.127182215452194 
2025	 0.127244472503662 
2026	 0.127311572432518 
2027	 0.127327874302864 
2028	 0.127405643463135 
2029	 0.127545490860939 
2030	 0.127688810229301 
2031	 0.127817079424858 
2032	 0.127873659133911 
2033	 0.127892091870308 
2034	 0.127899348735809 
2035	 0.127931267023087 
2036	 0.12798036634922 
2037	 0.12805001437664 
2038	 0.128156319260597 
2039	 0.128224864602089 
2040	 0.128292694687843 
2041	 0.128364726901054 
2042	 0.128461435437202 
2043	 0.128431648015976 
2044	 0.128457695245743 
2045	 0.128563895821571 
2046	 0.128608092665672 
2047	 0.128627553582191 
2048	 0.128625899553299 
2049	 0.128577008843422 
2050	 0.128583565354347 
2051	 0.128592073917389 
2052	 0.128615483641624 
2053	 0.128667965531349 
2054	 0.128693118691444 
2055	 0.12872913479805 
2056	 0.128748372197151 
2057	 0.128728002309799 
2058	 0.128774806857109 
2059	 0.12884396314621 
2060	 0.128811940550804 
2061	 0.128834873437881 
2062	 0.128867223858833 
2063	 0.128909751772881 
2064	 0.128987982869148 
2065	 0.12904965877533 
2066	 0.129168763756752 
2067	 0.129219174385071 
2068	 0.129219934344292 
2069	 0.12922078371048 
2070	 0.129185363650322 
2071	 0.129155829548836 
2072	 0.1291364133358 
2073	 0.129100888967514 
2074	 0.128960102796555 
2075	 0.128859579563141 
2076	 0.128819435834885 
2077	 0.128786370158195 
2078	 0.128816783428192 
2079	 0.128808349370956 
2080	 0.12877993285656 
2081	 0.128676041960716 
2082	 0.12865050137043 
2083	 0.128696829080582 
2084	 0.128651440143585 
2085	 0.128557905554771 
2086	 0.128489196300507 
2087	 0.128368571400642 
2088	 0.128285214304924 
2089	 0.128249198198318 
2090	 0.128216713666916 
2091	 0.128142535686493 
2092	 0.12808845937252 
2093	 0.12800644338131 
2094	 0.127931281924248 
2095	 0.127839013934135 
2096	 0.127739474177361 
2097	 0.127647459506989 
2098	 0.127557545900345 
2099	 0.127463966608047 
2100	 0.127402380108833 
2101	 0.127282708883286 
2102	 0.127097740769386 
2103	 0.126989349722862 
2104	 0.12688647210598 
2105	 0.126763045787811 
2106	 0.12663696706295 
2107	 0.126599162817001 
2108	 0.12656469643116 
2109	 0.126521840691566 
2110	 0.126507848501205 
2111	 0.126411572098732 
2112	 0.12617826461792 
2113	 0.126024857163429 
2114	 0.125928610563278 
2115	 0.125881165266037 
2116	 0.125841185450554 
2117	 0.125850588083267 
2118	 0.125840216875076 
2119	 0.125864714384079 
2120	 0.125854760408401 
2121	 0.125813752412796 
2122	 0.125835135579109 
2123	 0.125866368412971 
2124	 0.12586273252964 
2125	 0.125868961215019 
2126	 0.125930577516556 
2127	 0.125952988862991 
2128	 0.125911518931389 
2129	 0.125901445746422 
2130	 0.125920042395592 
2131	 0.125832602381706 
2132	 0.125757038593292 
2133	 0.125676840543747 
2134	 0.125560864806175 
2135	 0.125477954745293 
2136	 0.12542487680912 
2137	 0.125361680984497 
2138	 0.12532539665699 
2139	 0.125245273113251 
2140	 0.125150367617607 
2141	 0.125023066997528 
2142	 0.124852329492569 
2143	 0.124689489603043 
2144	 0.124527208507061 
2145	 0.12431612610817 
2146	 0.124098904430866 
2147	 0.123933650553226 
2148	 0.123713999986649 
2149	 0.123482972383499 
2150	 0.12327753007412 
2151	 0.123058900237083 
2152	 0.12280011177063 
2153	 0.122532546520233 
2154	 0.122231133282185 
2155	 0.121882051229477 
2156	 0.121514610946178 
2157	 0.121168173849583 
2158	 0.120741046965122 
2159	 0.120234444737434 
2160	 0.119738034904003 
2161	 0.119164846837521 
2162	 0.118620626628399 
2163	 0.118135146796703 
2164	 0.11757967621088 
2165	 0.116836398839951 
2166	 0.116152070462704 
2167	 0.115377530455589 
2168	 0.114582240581512 
2169	 0.1139250472188 
2170	 0.11326503008604 
2171	 0.112465240061283 
2172	 0.111581705510616 
2173	 0.110750921070576 
2174	 0.109884224832058 
2175	 0.108984380960464 
2176	 0.108120143413544 
2177	 0.107200652360916 
2178	 0.106147542595863 
2179	 0.105203256011009 
2180	 0.104316502809525 
2181	 0.103388503193855 
2182	 0.102528110146523 
2183	 0.101568058133125 
2184	 0.100452400743961 
2185	 9.94762852787972E-02 
2186	 9.84939113259315E-02 
2187	 9.75497886538506E-02 
2188	 9.67833548784256E-02 
2189	 9.61423814296722E-02 
2190	 9.54547896981239E-02 
2191	 0.094748392701149 
2192	 9.41657200455666E-02 
2193	 9.37227085232735E-02 
2194	 9.33466181159019E-02 
2195	 9.30867344141006E-02 
2196	 9.28216874599457E-02 
2197	 9.24949795007706E-02 
2198	 9.23604965209961E-02 
2199	 9.23490077257156E-02 
2200	 9.24142226576805E-02 
2201	 9.26193222403526E-02 
2202	 9.28471982479095E-02 
2203	 9.31437090039253E-02 
2204	 9.35094729065895E-02 
2205	 9.39818024635315E-02 
2206	 9.44148674607277E-02 
2207	 9.48780030012131E-02 
2208	 0.095381572842598 
2209	 9.58793237805367E-02 
2210	 9.64259952306747E-02 
2211	 9.70254763960838E-02 
2212	 9.76676642894745E-02 
2213	 9.83912348747253E-02 
2214	 9.90915149450302E-02 
2215	 9.97419208288193E-02 
2216	 0.100294478237629 
2217	 0.100729450583458 
2218	 0.101234100759029 
2219	 0.101864993572235 
2220	 0.102474220097065 
2221	 0.103055730462074 
2222	 0.103538312017918 
2223	 0.104014582931995 
2224	 0.104451701045036 
2225	 0.104848384857178 
2226	 0.105250217020512 
2227	 0.105540506541729 
2228	 0.105693094432354 
2229	 0.105897255241871 
2230	 0.106108762323856 
2231	 0.106248758733273 
2232	 0.106378205120564 
2233	 0.106431618332863 
2234	 0.106287263333797 
2235	 0.106271617114544 
2236	 0.106391318142414 
2237	 0.106381982564926 
2238	 0.106345638632774 
2239	 0.106307461857796 
2240	 0.106190197169781 
2241	 0.106028191745281 
2242	 0.105904661118984 
2243	 0.105769954621792 
2244	 0.105658642947674 
2245	 0.105405621230602 
2246	 0.105116121470928 
2247	 0.104969635605812 
2248	 0.104769691824913 
2249	 0.104598626494408 
2250	 0.104639612138271 
2251	 0.104732401669025 
2252	 0.104839220643044 
2253	 0.10503314435482 
2254	 0.105214014649391 
2255	 0.10538937151432 
2256	 0.105624407529831 
2257	 0.105921611189842 
2258	 0.106190122663975 
2259	 0.106454811990261 
2260	 0.106776423752308 
2261	 0.107174798846245 
2262	 0.107451073825359 
2263	 0.107771575450897 
2264	 0.107977241277695 
2265	 0.107938639819622 
2266	 0.108081392943859 
2267	 0.1083714812994 
2268	 0.108503609895706 
2269	 0.108573958277702 
2270	 0.108695767819881 
2271	 0.108809538185596 
2272	 0.108785226941109 
2273	 0.108780898153782 
2274	 0.108900420367718 
2275	 0.10895873606205 
2276	 0.108870923519135 
2277	 0.108766578137875 
2278	 0.108782976865768 
2279	 0.1087881103158 
2280	 0.108642272651196 
2281	 0.108552157878876 
2282	 0.108603976666927 
2283	 0.108461759984493 
2284	 0.108192808926105 
2285	 0.108049415051937 
2286	 0.107772313058376 
2287	 0.107485637068748 
2288	 0.107443779706955 
2289	 0.107261136174202 
2290	 0.106935068964958 
2291	 0.106680244207382 
2292	 0.106377981603146 
2293	 0.106089785695076 
2294	 0.105839282274246 
2295	 0.105585642158985 
2296	 0.105301335453987 
2297	 0.10509467869997 
2298	 0.104990921914577 
2299	 0.104726672172546 
2300	 0.104326456785202 
2301	 0.104091726243496 
2302	 0.103938870131969 
2303	 0.103644609451294 
2304	 0.103465802967548 
2305	 0.103145144879818 
2306	 0.102480739355087 
2307	 0.102091684937477 
2308	 0.101785063743591 
2309	 0.101540111005306 
2310	 0.101591065526009 
2311	 0.101309664547443 
2312	 0.100795231759548 
2313	 0.100511752068996 
2314	 0.100212447345257 
2315	 9.98211354017258E-02 
2316	 9.95732396841049E-02 
2317	 9.92687493562698E-02 
2318	 9.86171513795853E-02 
2319	 9.80096384882927E-02 
2320	 9.76707339286804E-02 
2321	 9.72946286201477E-02 
2322	 9.69960764050484E-02 
2323	 9.67149809002876E-02 
2324	 9.62824672460556E-02 
2325	 9.60338786244392E-02 
2326	 9.57194045186043E-02 
2327	 0.095232367515564 
2328	 9.48886722326279E-02 
2329	 9.45147722959518E-02 
2330	 9.41603183746338E-02 
2331	 9.39833894371986E-02 
2332	 9.37450975179672E-02 
2333	 9.34229642152786E-02 
2334	 9.31897982954979E-02 
2335	 9.29825901985168E-02 
2336	 9.28351655602455E-02 
2337	 9.27953198552132E-02 
2338	 9.23396944999695E-02 
2339	 9.18350219726563E-02 
2340	 9.17956829071045E-02 
2341	 9.15980860590935E-02 
2342	 9.15432125329971E-02 
2343	 9.17507633566856E-02 
2344	 9.17295217514038E-02 
2345	 9.16118696331978E-02 
2346	 9.14620906114578E-02 
2347	 9.13798287510872E-02 
2348	 9.13203358650208E-02 
2349	 9.12247821688652E-02 
2350	 9.12214443087578E-02 
2351	 0.091450147330761 
2352	 0.091590628027916 
2353	 9.15659964084625E-02 
2354	 9.17229726910591E-02 
2355	 9.21273455023766E-02 
2356	 9.22983959317207E-02 
2357	 9.23958420753479E-02 
2358	 9.26221087574959E-02 
2359	 9.27821919322014E-02 
2360	 9.30104479193687E-02 
2361	 9.33929458260536E-02 
2362	 9.36116799712181E-02 
2363	 9.38060134649277E-02 
2364	 9.39194411039352E-02 
2365	 9.38519015908241E-02 
2366	 9.40152704715729E-02 
2367	 0.094295047223568 
2368	 9.43424329161644E-02 
2369	 9.43912789225578E-02 
2370	 9.44825857877731E-02 
2371	 9.44282785058022E-02 
2372	 9.44807976484299E-02 
2373	 9.46431085467339E-02 
2374	 9.47454571723938E-02 
2375	 9.48255062103271E-02 
2376	 9.47802141308784E-02 
2377	 9.48108062148094E-02 
2378	 9.47276428341866E-02 
2379	 9.42357107996941E-02 
2380	 0.094235360622406 
2381	 9.45926159620285E-02 
2382	 9.45892930030823E-02 
2383	 9.46520790457726E-02 
2384	 9.47334915399551E-02 
2385	 9.45205539464951E-02 
2386	 9.44663509726524E-02 
2387	 9.47393551468849E-02 
2388	 9.47103127837181E-02 
2389	 9.43020880222321E-02 
2390	 9.43146944046021E-02 
2391	 9.46470275521278E-02 
2392	 9.46163907647133E-02 
2393	 0.094547912478447 
2394	 9.45651829242706E-02 
2395	 9.42939072847366E-02 
2396	 9.42102298140526E-02 
2397	 9.46170315146446E-02 
2398	 9.44570451974869E-02 
2399	 9.38077941536903E-02 
2400	 9.35499668121338E-02 
2401	 9.31356102228165E-02 
2402	 9.30893197655678E-02 
2403	 9.36136618256569E-02 
2404	 9.36156585812569E-02 
2405	 9.34592187404633E-02 
2406	 0.093354806303978 
2407	 9.31102260947227E-02 
2408	 9.28327590227127E-02 
2409	 9.24741178750992E-02 
2410	 9.22934412956238E-02 
2411	 9.22212079167366E-02 
2412	 9.19617787003517E-02 
2413	 0.091694563627243 
2414	 9.15271639823914E-02 
2415	 9.12004932761192E-02 
2416	 9.09249261021614E-02 
2417	 9.11133885383606E-02 
2418	 9.06538739800453E-02 
2419	 8.93942564725876E-02 
2420	 8.90223830938339E-02 
2421	 8.87575522065163E-02 
2422	 8.86666625738144E-02 
2423	 8.94978418946266E-02 
2424	 8.94007757306099E-02 
2425	 8.86872187256813E-02 
2426	 8.83349925279617E-02 
2427	 8.77027064561844E-02 
2428	 8.75735580921173E-02 
2429	 8.79996940493584E-02 
2430	 8.79262611269951E-02 
2431	 8.77768620848656E-02 
2432	 8.76508131623268E-02 
2433	 8.72089639306068E-02 
2434	 8.70881602168083E-02 
2435	 0.087220162153244 
2436	 8.73245596885681E-02 
2437	 8.76050889492035E-02 
2438	 8.74325633049011E-02 
2439	 8.72014537453651E-02 
2440	 0.086986131966114 
2441	 8.62306132912636E-02 
2442	 8.61228927969933E-02 
2443	 8.64791795611382E-02 
2444	 8.64362344145775E-02 
2445	 8.64881947636604E-02 
2446	 8.63955095410347E-02 
2447	 0.085855208337307 
2448	 8.62016826868057E-02 
2449	 8.71655717492104E-02 
2450	 8.72777178883553E-02 
2451	 8.76265913248062E-02 
2452	 8.74387249350548E-02 
2453	 0.086247019469738 
2454	 8.59753414988518E-02 
2455	 8.58218297362328E-02 
2456	 8.60770791769028E-02 
2457	 8.67956429719925E-02 
2458	 8.74218493700027E-02 
2459	 8.77020210027695E-02 
2460	 8.76708775758743E-02 
2461	 8.77320170402527E-02 
2462	 8.73577296733856E-02 
2463	 8.71696844696999E-02 
2464	 8.74760076403618E-02 
2465	 8.74656960368156E-02 
2466	 8.77018645405769E-02 
2467	 8.79978314042091E-02 
2468	 8.78349468111992E-02 
2469	 8.79374369978905E-02 
2470	 8.87103676795959E-02 
2471	 8.89952480792999E-02 
2472	 8.87371972203255E-02 
2473	 8.89101326465607E-02 
2474	 8.95888805389404E-02 
2475	 8.94561186432838E-02 
2476	 8.88882800936699E-02 
2477	 8.86723771691322E-02 
2478	 8.79274308681488E-02 
2479	 0.087375283241272 
2480	 8.70557054877281E-02 
2481	 8.72164666652679E-02 
2482	 8.77730995416641E-02 
2483	 8.78299623727798E-02 
2484	 8.82962346076965E-02 
2485	 8.85009318590164E-02 
2486	 0.087793156504631 
2487	 0.087680347263813 
2488	 8.83189886808395E-02 
2489	 8.82991477847099E-02 
2490	 8.75789597630501E-02 
2491	 8.77927616238594E-02 
2492	 8.82665663957596E-02 
2493	 8.88332650065422E-02 
2494	 9.06178653240204E-02 
2495	 9.07637253403664E-02 
2496	 8.94645154476166E-02 
2497	 8.96672531962395E-02 
2498	 9.00474265217781E-02 
2499	 9.00604799389839E-02 
2500	 9.10527408123016E-02 
