
Text conversion of header file \A_MEDIDAS\PROJETOS\BRASIL\BLOCO GAVIAO\JACOBINA\CANIF27\sco\CANIF27_033.20_00000.asd.ref
 -------------------------------------------------------------
                                                                                                                                                            
The instrument number was  16586/1
New ASD spectrum file: Program version = 6.00 file version = 1.00
Spectrum saved: 10/16/2018 at 10:21:18
VNIR integration time : 34
VNIR channel 1 wavelength = 350 wavelength step = 1
There were 50 samples per data value
xmin = 350 xmax= 2500
ymin= 0 ymax= 1.25
The instrument digitizes spectral values to 16 bits
SWIR1 gain was 203 offset was 2094
SWIR2 gain was 499 offset was 2264
Join between VNIR and SWIR1 was 1000 nm
Join between SWIR1 and SWIR2 was 1830 nm
Absolute Reflectance is Enabled
The Absolute Reflectance File is abs165861.ref
VNIR dark signal subtracted
50 dark measurements taken Tue Oct 16 10:13:56 2018
DCC value was 0
Data is compared to a white reference:
60 white reference measurements taken Tue Oct 16 10:14:04 2018
There was no foreoptic attached
Spectrum file is reflectance data
GPS-Latitude is S0
GPS-Longitude is E0
GPS-Altitude is 0
GPS-UTC is Wed Dec 31 17:00:00 1969

Smart Detector
Serial#  0
Signal (A)  0.000E00
Dark (A)  0.000E00
Ref (A)  0.000E00
Status  0 - Uninitialized
Gain  E-4
Averaging  0
Temp (C)  0.0
Humid (%)  0.0

Reflectance Absolute
Wavelength	CANIF27_33.20_00000.asd.ref
350	 0.255912661552429 
351	 0.247056558728218 
352	 0.244853541254997 
353	 0.259748578071594 
354	 0.283122688531876 
355	 0.264801740646362 
356	 0.25990828871727 
357	 0.266091108322144 
358	 0.265343189239502 
359	 0.262357413768768 
360	 0.262155503034592 
361	 0.264318764209747 
362	 0.265223413705826 
363	 0.267595797777176 
364	 0.27077379822731 
365	 0.271996408700943 
366	 0.265897452831268 
367	 0.264146536588669 
368	 0.267258018255234 
369	 0.271576404571533 
370	 0.270749360322952 
371	 0.268118679523468 
372	 0.267318934202194 
373	 0.270492613315582 
374	 0.270707130432129 
375	 0.270918935537338 
376	 0.27120053768158 
377	 0.268117100000381 
378	 0.267659723758698 
379	 0.269502490758896 
380	 0.271358728408813 
381	 0.269330978393555 
382	 0.267737865447998 
383	 0.268691420555115 
384	 0.271850287914276 
385	 0.269225865602493 
386	 0.267766177654266 
387	 0.269231975078583 
388	 0.270058006048203 
389	 0.270484507083893 
390	 0.269598931074142 
391	 0.268124133348465 
392	 0.270573019981384 
393	 0.271561414003372 
394	 0.270364880561829 
395	 0.268390953540802 
396	 0.26887920498848 
397	 0.269119769334793 
398	 0.268803626298904 
399	 0.269449889659882 
400	 0.268545985221863 
401	 0.267952263355255 
402	 0.268596947193146 
403	 0.268800854682922 
404	 0.267908424139023 
405	 0.266934514045715 
406	 0.266840785741806 
407	 0.26595264673233 
408	 0.266155600547791 
409	 0.26679539680481 
410	 0.265839546918869 
411	 0.266545176506042 
412	 0.266779333353043 
413	 0.265655338764191 
414	 0.265196025371552 
415	 0.265689134597778 
416	 0.265856593847275 
417	 0.264930337667465 
418	 0.265862733125687 
419	 0.265238732099533 
420	 0.263769507408142 
421	 0.264435619115829 
422	 0.264930725097656 
423	 0.264912098646164 
424	 0.26449653506279 
425	 0.264072865247726 
426	 0.264034658670425 
427	 0.264032185077667 
428	 0.263786047697067 
429	 0.264024913311005 
430	 0.264514952898026 
431	 0.264604151248932 
432	 0.263694137334824 
433	 0.264009714126587 
434	 0.264509052038193 
435	 0.264467924833298 
436	 0.264220178127289 
437	 0.263927072286606 
438	 0.264146238565445 
439	 0.265001744031906 
440	 0.264855027198792 
441	 0.264400660991669 
442	 0.264226078987122 
443	 0.264676243066788 
444	 0.264869809150696 
445	 0.264909863471985 
446	 0.264918357133865 
447	 0.264813601970673 
448	 0.264729171991348 
449	 0.26478111743927 
450	 0.26496160030365 
451	 0.264796435832977 
452	 0.264825820922852 
453	 0.265150010585785 
454	 0.265479505062103 
455	 0.265187054872513 
456	 0.264941900968552 
457	 0.265081107616425 
458	 0.264947175979614 
459	 0.264970809221268 
460	 0.265022665262222 
461	 0.26492640376091 
462	 0.265196084976196 
463	 0.26531183719635 
464	 0.265240490436554 
465	 0.265384942293167 
466	 0.265217870473862 
467	 0.265196710824966 
468	 0.26554262638092 
469	 0.265570163726807 
470	 0.265547811985016 
471	 0.265623778104782 
472	 0.26582869887352 
473	 0.265712529420853 
474	 0.265718460083008 
475	 0.265947371721268 
476	 0.266076743602753 
477	 0.266304522752762 
478	 0.266459941864014 
479	 0.266466706991196 
480	 0.266711950302124 
481	 0.266915529966354 
482	 0.26707535982132 
483	 0.267303466796875 
484	 0.267474114894867 
485	 0.267584353685379 
486	 0.267659813165665 
487	 0.267744421958923 
488	 0.268003582954407 
489	 0.268312066793442 
490	 0.268514513969421 
491	 0.26864093542099 
492	 0.268705993890762 
493	 0.268787235021591 
494	 0.268981397151947 
495	 0.269174546003342 
496	 0.269378840923309 
497	 0.269537091255188 
498	 0.269430607557297 
499	 0.269611924886703 
500	 0.269845217466354 
501	 0.269807159900665 
502	 0.269926071166992 
503	 0.270113289356232 
504	 0.270259141921997 
505	 0.2702596783638 
506	 0.270136952400208 
507	 0.270090043544769 
508	 0.270202219486237 
509	 0.270265489816666 
510	 0.270332217216492 
511	 0.270358473062515 
512	 0.270298272371292 
513	 0.270257502794266 
514	 0.270221680402756 
515	 0.270148545503616 
516	 0.269987225532532 
517	 0.270073026418686 
518	 0.270157933235168 
519	 0.270033627748489 
520	 0.269907116889954 
521	 0.269834786653519 
522	 0.269771337509155 
523	 0.269632756710052 
524	 0.269488006830215 
525	 0.269327938556671 
526	 0.269166678190231 
527	 0.269057035446167 
528	 0.268900007009506 
529	 0.26872244477272 
530	 0.268571048974991 
531	 0.268466532230377 
532	 0.268214851617813 
533	 0.267854511737823 
534	 0.267572939395905 
535	 0.267402648925781 
536	 0.267285913228989 
537	 0.267147809267044 
538	 0.266908138990402 
539	 0.266664206981659 
540	 0.266387611627579 
541	 0.266056805849075 
542	 0.26586240530014 
543	 0.265604943037033 
544	 0.265280812978745 
545	 0.265050679445267 
546	 0.264781147241592 
547	 0.264487504959106 
548	 0.264176398515701 
549	 0.263766944408417 
550	 0.263424158096313 
551	 0.26310333609581 
552	 0.262709349393845 
553	 0.26239413022995 
554	 0.262031227350235 
555	 0.261607438325882 
556	 0.261249572038651 
557	 0.26096698641777 
558	 0.260702639818192 
559	 0.260382145643234 
560	 0.259920448064804 
561	 0.259489387273788 
562	 0.259084403514862 
563	 0.258622080087662 
564	 0.258173197507858 
565	 0.257805913686752 
566	 0.257490307092667 
567	 0.25706535577774 
568	 0.256713360548019 
569	 0.256404459476471 
570	 0.256087332963943 
571	 0.255874782800674 
572	 0.255517512559891 
573	 0.254995763301849 
574	 0.25446617603302 
575	 0.254005402326584 
576	 0.253581345081329 
577	 0.253169119358063 
578	 0.252787351608276 
579	 0.252417176961899 
580	 0.252041399478912 
581	 0.251634627580643 
582	 0.251129865646362 
583	 0.250625282526016 
584	 0.250197768211365 
585	 0.2498849183321 
586	 0.249602138996124 
587	 0.249316111207008 
588	 0.249046042561531 
589	 0.248921349644661 
590	 0.248702228069305 
591	 0.248380124568939 
592	 0.248041480779648 
593	 0.247741505503654 
594	 0.247359305620193 
595	 0.246885299682617 
596	 0.246436879038811 
597	 0.24602147936821 
598	 0.24559260904789 
599	 0.245129615068436 
600	 0.244725719094276 
601	 0.244359731674194 
602	 0.243977665901184 
603	 0.243541970849037 
604	 0.243293151259422 
605	 0.243068635463715 
606	 0.242807447910309 
607	 0.242624431848526 
608	 0.242486402392387 
609	 0.24237072467804 
610	 0.242234259843826 
611	 0.241951867938042 
612	 0.241733908653259 
613	 0.24156990647316 
614	 0.241326898336411 
615	 0.241075426340103 
616	 0.24089939892292 
617	 0.240789830684662 
618	 0.240592703223228 
619	 0.240427598357201 
620	 0.240299493074417 
621	 0.240176782011986 
622	 0.240013375878334 
623	 0.23983208835125 
624	 0.239712983369827 
625	 0.239744588732719 
626	 0.239667296409607 
627	 0.239566296339035 
628	 0.239524602890015 
629	 0.239537924528122 
630	 0.239553183317184 
631	 0.239544048905373 
632	 0.239509999752045 
633	 0.23949658870697 
634	 0.239589214324951 
635	 0.239707171916962 
636	 0.239666298031807 
637	 0.239687532186508 
638	 0.239776864647865 
639	 0.239877626299858 
640	 0.239872813224792 
641	 0.239977568387985 
642	 0.240058526396751 
643	 0.239950120449066 
644	 0.239897057414055 
645	 0.23987452685833 
646	 0.239866644144058 
647	 0.239870935678482 
648	 0.239868476986885 
649	 0.239954739809036 
650	 0.240130886435509 
651	 0.240178748965263 
652	 0.240317955613136 
653	 0.240504413843155 
654	 0.240635842084885 
655	 0.24077844619751 
656	 0.240863516926765 
657	 0.240970522165298 
658	 0.241266176104546 
659	 0.241412177681923 
660	 0.241539806127548 
661	 0.241754949092865 
662	 0.241973489522934 
663	 0.242268204689026 
664	 0.242576211690903 
665	 0.242798954248428 
666	 0.242871448397636 
667	 0.243061885237694 
668	 0.243378549814224 
669	 0.243629336357117 
670	 0.243837460875511 
671	 0.244057580828667 
672	 0.244297623634338 
673	 0.244471922516823 
674	 0.244712308049202 
675	 0.244957834482193 
676	 0.245107367634773 
677	 0.245145380496979 
678	 0.245136916637421 
679	 0.245157107710838 
680	 0.245254352688789 
681	 0.245213687419891 
682	 0.245118021965027 
683	 0.24504579603672 
684	 0.24500997364521 
685	 0.24501346051693 
686	 0.245074555277824 
687	 0.245224609971046 
688	 0.245549291372299 
689	 0.245815694332123 
690	 0.245943188667297 
691	 0.245981484651566 
692	 0.246191263198853 
693	 0.246411070227623 
694	 0.246586441993713 
695	 0.24683590233326 
696	 0.24703685939312 
697	 0.247316658496857 
698	 0.247730657458305 
699	 0.248014524579048 
700	 0.24833919107914 
701	 0.248683094978333 
702	 0.248976349830627 
703	 0.249340891838074 
704	 0.249612435698509 
705	 0.249823242425919 
706	 0.25017237663269 
707	 0.250428318977356 
708	 0.250638246536255 
709	 0.250876903533936 
710	 0.251186728477478 
711	 0.251438230276108 
712	 0.251651495695114 
713	 0.251888751983643 
714	 0.252185106277466 
715	 0.252395331859589 
716	 0.252574563026428 
717	 0.252864301204681 
718	 0.252986967563629 
719	 0.253166019916534 
720	 0.253444224596024 
721	 0.25358060002327 
722	 0.253703862428665 
723	 0.253873080015183 
724	 0.254080325365067 
725	 0.254181236028671 
726	 0.254312187433243 
727	 0.254508197307587 
728	 0.254741698503494 
729	 0.254914164543152 
730	 0.254969537258148 
731	 0.25498440861702 
732	 0.255114585161209 
733	 0.255220890045166 
734	 0.255325466394424 
735	 0.25543612241745 
736	 0.255507618188858 
737	 0.255605846643448 
738	 0.255680620670319 
739	 0.255713403224945 
740	 0.255869925022125 
741	 0.255959272384644 
742	 0.255971342325211 
743	 0.255990982055664 
744	 0.256127804517746 
745	 0.256233662366867 
746	 0.256294071674347 
747	 0.256403148174286 
748	 0.256367594003677 
749	 0.256352305412292 
750	 0.256436794996262 
751	 0.256493747234344 
752	 0.256515830755234 
753	 0.256560981273651 
754	 0.25665020942688 
755	 0.256637752056122 
756	 0.25671711564064 
757	 0.256797820329666 
758	 0.256738156080246 
759	 0.256777405738831 
760	 0.25681608915329 
761	 0.256853073835373 
762	 0.256956309080124 
763	 0.257004350423813 
764	 0.256999045610428 
765	 0.256960332393646 
766	 0.256908923387527 
767	 0.256851077079773 
768	 0.256798893213272 
769	 0.256758451461792 
770	 0.256718188524246 
771	 0.256730824708939 
772	 0.256809949874878 
773	 0.256908923387527 
774	 0.256818026304245 
775	 0.256754994392395 
776	 0.256759077310562 
777	 0.25676167011261 
778	 0.256755143404007 
779	 0.256742298603058 
780	 0.256734400987625 
781	 0.256744891405106 
782	 0.256745517253876 
783	 0.256687194108963 
784	 0.256586998701096 
785	 0.256556898355484 
786	 0.256579160690308 
787	 0.256594061851501 
788	 0.256549745798111 
789	 0.256434768438339 
790	 0.256340682506561 
791	 0.256334185600281 
792	 0.256403923034668 
793	 0.256309449672699 
794	 0.256174951791763 
795	 0.256153374910355 
796	 0.256311774253845 
797	 0.256187826395035 
798	 0.256132811307907 
799	 0.256186485290527 
800	 0.256104946136475 
801	 0.255928635597229 
802	 0.255842447280884 
803	 0.255904167890549 
804	 0.255987584590912 
805	 0.255900979042053 
806	 0.255849421024323 
807	 0.255927920341492 
808	 0.255897969007492 
809	 0.255859881639481 
810	 0.255794227123261 
811	 0.255697548389435 
812	 0.255677342414856 
813	 0.255694568157196 
814	 0.255752623081207 
815	 0.255814969539642 
816	 0.2556531727314 
817	 0.255496859550476 
818	 0.25544261932373 
819	 0.255484223365784 
820	 0.255516052246094 
821	 0.255586087703705 
822	 0.255617767572403 
823	 0.255483776330948 
824	 0.255344599485397 
825	 0.255318343639374 
826	 0.255347400903702 
827	 0.255244374275208 
828	 0.255197942256927 
829	 0.255236327648163 
830	 0.255283385515213 
831	 0.255182474851608 
832	 0.255098402500153 
833	 0.255064070224762 
834	 0.255028307437897 
835	 0.25485697388649 
836	 0.254859119653702 
837	 0.254896908998489 
838	 0.254841715097427 
839	 0.254814714193344 
840	 0.254749447107315 
841	 0.254693627357483 
842	 0.254674077033997 
843	 0.254572957754135 
844	 0.254546403884888 
845	 0.254523932933807 
846	 0.254423022270203 
847	 0.254390120506287 
848	 0.254316747188568 
849	 0.254250377416611 
850	 0.254262208938599 
851	 0.254258364439011 
852	 0.254203826189041 
853	 0.254123508930206 
854	 0.254064291715622 
855	 0.254018038511276 
856	 0.253964573144913 
857	 0.253896504640579 
858	 0.253824681043625 
859	 0.25380340218544 
860	 0.253810346126556 
861	 0.253779530525208 
862	 0.253653764724731 
863	 0.253573536872864 
864	 0.253491878509521 
865	 0.253392249345779 
866	 0.25330176949501 
867	 0.253309637308121 
868	 0.253262937068939 
869	 0.253137916326523 
870	 0.253047823905945 
871	 0.253136396408081 
872	 0.253148823976517 
873	 0.253008246421814 
874	 0.252841591835022 
875	 0.252675086259842 
876	 0.252659887075424 
877	 0.252747356891632 
878	 0.252710074186325 
879	 0.252543389797211 
880	 0.252426832914352 
881	 0.252405732870102 
882	 0.252371311187744 
883	 0.25232458114624 
884	 0.252222806215286 
885	 0.252117335796356 
886	 0.252124130725861 
887	 0.252073049545288 
888	 0.251995593309402 
889	 0.25189945101738 
890	 0.251761019229889 
891	 0.251724392175674 
892	 0.251648396253586 
893	 0.251484930515289 
894	 0.251327157020569 
895	 0.251344412565231 
896	 0.251395702362061 
897	 0.251389503479004 
898	 0.25133353471756 
899	 0.251309633255005 
900	 0.251194268465042 
901	 0.250999063253403 
902	 0.250864386558533 
903	 0.250840991735458 
904	 0.250797718763351 
905	 0.250704675912857 
906	 0.250636160373688 
907	 0.250680327415466 
908	 0.250675350427628 
909	 0.250599950551987 
910	 0.250520765781403 
911	 0.250297337770462 
912	 0.25012195110321 
913	 0.250056326389313 
914	 0.250044018030167 
915	 0.24998565018177 
916	 0.249903529882431 
917	 0.249812975525856 
918	 0.249729827046394 
919	 0.249695256352425 
920	 0.249681293964386 
921	 0.249619364738464 
922	 0.249465972185135 
923	 0.249299854040146 
924	 0.249233961105347 
925	 0.249212801456451 
926	 0.249150350689888 
927	 0.249072104692459 
928	 0.249003767967224 
929	 0.248959839344025 
930	 0.24891109764576 
931	 0.248757183551788 
932	 0.248611018061638 
933	 0.24854801595211 
934	 0.248553112149239 
935	 0.248491317033768 
936	 0.248280465602875 
937	 0.248176246881485 
938	 0.248217836022377 
939	 0.248122900724411 
940	 0.248011037707329 
941	 0.247935995459557 
942	 0.247862577438354 
943	 0.247708514332771 
944	 0.247591108083725 
945	 0.247567906975746 
946	 0.247526437044144 
947	 0.247318536043167 
948	 0.247157543897629 
949	 0.246998250484467 
950	 0.246753722429276 
951	 0.246412947773933 
952	 0.246254116296768 
953	 0.246142029762268 
954	 0.245990425348282 
955	 0.245797768235207 
956	 0.245704829692841 
957	 0.245514512062073 
958	 0.245361030101776 
959	 0.245246291160583 
960	 0.244901716709137 
961	 0.244701042771339 
962	 0.244598567485809 
963	 0.244533881545067 
964	 0.24451020359993 
965	 0.244568586349487 
966	 0.244603499770164 
967	 0.244569346308708 
968	 0.24448549747467 
969	 0.244391351938248 
970	 0.244441762566566 
971	 0.244510725140572 
972	 0.244465038180351 
973	 0.244476288557053 
974	 0.244401797652245 
975	 0.244415700435638 
976	 0.244507387280464 
977	 0.244325488805771 
978	 0.244371667504311 
979	 0.244402527809143 
980	 0.244290456175804 
981	 0.244138479232788 
982	 0.244009211659431 
983	 0.243887796998024 
984	 0.243765994906425 
985	 0.243645906448364 
986	 0.243539482355118 
987	 0.243439137935638 
988	 0.243404313921928 
989	 0.243408516049385 
990	 0.243265211582184 
991	 0.243226587772369 
992	 0.243130326271057 
993	 0.242985919117928 
994	 0.242984861135483 
995	 0.242872148752213 
996	 0.242762684822083 
997	 0.242574766278267 
998	 0.242257624864578 
999	 0.242241963744164 
1000	 0.242194965481758 
1001	 0.231393858790398 
1002	 0.231325715780258 
1003	 0.231289684772491 
1004	 0.231246307492256 
1005	 0.230965629220009 
1006	 0.230810031294823 
1007	 0.230625256896019 
1008	 0.230407014489174 
1009	 0.23026205599308 
1010	 0.23018653690815 
1011	 0.230101525783539 
1012	 0.230025887489319 
1013	 0.229953274130821 
1014	 0.229929611086845 
1015	 0.229851230978966 
1016	 0.229738235473633 
1017	 0.229674011468887 
1018	 0.229536563158035 
1019	 0.229366838932037 
1020	 0.229235172271729 
1021	 0.229066759347916 
1022	 0.228956803679466 
1023	 0.228917866945267 
1024	 0.228878110647202 
1025	 0.228930443525314 
1026	 0.228840336203575 
1027	 0.228720992803574 
1028	 0.228570833802223 
1029	 0.228282302618027 
1030	 0.228128120303154 
1031	 0.228042900562286 
1032	 0.227865189313889 
1033	 0.227808937430382 
1034	 0.227687731385231 
1035	 0.227547854185104 
1036	 0.227484032511711 
1037	 0.227398440241814 
1038	 0.227340862154961 
1039	 0.227201983332634 
1040	 0.22699074447155 
1041	 0.226829186081886 
1042	 0.226572796702385 
1043	 0.226434737443924 
1044	 0.22636604309082 
1045	 0.226385608315468 
1046	 0.226350024342537 
1047	 0.226288080215454 
1048	 0.226265430450439 
1049	 0.226174294948578 
1050	 0.226082429289818 
1051	 0.226022005081177 
1052	 0.22583019733429 
1053	 0.22568416595459 
1054	 0.225542351603508 
1055	 0.225366815924644 
1056	 0.22522845864296 
1057	 0.225162327289581 
1058	 0.224994242191315 
1059	 0.22480446100235 
1060	 0.224720284342766 
1061	 0.224594503641129 
1062	 0.224470645189285 
1063	 0.224384263157845 
1064	 0.224285826086998 
1065	 0.224230155348778 
1066	 0.224155768752098 
1067	 0.224086433649063 
1068	 0.224008396267891 
1069	 0.223895475268364 
1070	 0.223726466298103 
1071	 0.223628148436546 
1072	 0.223549127578735 
1073	 0.223427593708038 
1074	 0.223378092050552 
1075	 0.223313197493553 
1076	 0.223169952630997 
1077	 0.223064750432968 
1078	 0.222877353429794 
1079	 0.222639858722687 
1080	 0.222558259963989 
1081	 0.222534358501434 
1082	 0.222575634717941 
1083	 0.222666636109352 
1084	 0.222658753395081 
1085	 0.222603991627693 
1086	 0.2225531488657 
1087	 0.222483515739441 
1088	 0.222393169999123 
1089	 0.222298741340637 
1090	 0.222218558192253 
1091	 0.222068682312965 
1092	 0.221910089254379 
1093	 0.221790626645088 
1094	 0.221598461270332 
1095	 0.221504807472229 
1096	 0.221476435661316 
1097	 0.221445128321648 
1098	 0.221430078148842 
1099	 0.221303418278694 
1100	 0.221196562051773 
1101	 0.221098199486732 
1102	 0.220981419086456 
1103	 0.220851138234138 
1104	 0.220812365412712 
1105	 0.220762401819229 
1106	 0.22062112390995 
1107	 0.220524147152901 
1108	 0.220466002821922 
1109	 0.220372647047043 
1110	 0.220336377620697 
1111	 0.220268443226814 
1112	 0.22011524438858 
1113	 0.219940260052681 
1114	 0.219780310988426 
1115	 0.219691902399063 
1116	 0.219662845134735 
1117	 0.219594731926918 
1118	 0.219537407159805 
1119	 0.219460234045982 
1120	 0.219350457191467 
1121	 0.219162926077843 
1122	 0.219023406505585 
1123	 0.218910992145538 
1124	 0.218766689300537 
1125	 0.218667313456535 
1126	 0.218553200364113 
1127	 0.218413963913918 
1128	 0.2182756960392 
1129	 0.218168780207634 
1130	 0.218103095889091 
1131	 0.217995658516884 
1132	 0.217888280749321 
1133	 0.217796087265015 
1134	 0.217668756842613 
1135	 0.217513933777809 
1136	 0.217334002256393 
1137	 0.217157483100891 
1138	 0.217003986239433 
1139	 0.21686615049839 
1140	 0.216780662536621 
1141	 0.216668099164963 
1142	 0.216511830687523 
1143	 0.216376557946205 
1144	 0.216235548257828 
1145	 0.216133400797844 
1146	 0.216066911816597 
1147	 0.215972721576691 
1148	 0.215853840112686 
1149	 0.215737834572792 
1150	 0.215615302324295 
1151	 0.215500310063362 
1152	 0.215374782681465 
1153	 0.215269103646278 
1154	 0.215198412537575 
1155	 0.2150998711586 
1156	 0.215005844831467 
1157	 0.214937195181847 
1158	 0.214830443263054 
1159	 0.214741080999374 
1160	 0.214656159281731 
1161	 0.214543744921684 
1162	 0.214431717991829 
1163	 0.214317411184311 
1164	 0.214249387383461 
1165	 0.214185133576393 
1166	 0.2141203135252 
1167	 0.21412056684494 
1168	 0.214035198092461 
1169	 0.213883176445961 
1170	 0.213769659399986 
1171	 0.213703066110611 
1172	 0.213611125946045 
1173	 0.213594555854797 
1174	 0.21356837451458 
1175	 0.213491082191467 
1176	 0.213433355093002 
1177	 0.213337793946266 
1178	 0.21324548125267 
1179	 0.213201999664307 
1180	 0.213125512003899 
1181	 0.213025897741318 
1182	 0.212940886616707 
1183	 0.212865799665451 
1184	 0.212752223014832 
1185	 0.212687775492668 
1186	 0.212697416543961 
1187	 0.212651997804642 
1188	 0.212597563862801 
1189	 0.212513744831085 
1190	 0.212421625852585 
1191	 0.212295278906822 
1192	 0.212190330028534 
1193	 0.212128490209579 
1194	 0.212072253227234 
1195	 0.212044551968575 
1196	 0.212016671895981 
1197	 0.211952567100525 
1198	 0.211914494633675 
1199	 0.211868211627007 
1200	 0.211762368679047 
1201	 0.211685001850128 
1202	 0.211604028940201 
1203	 0.211469754576683 
1204	 0.211402207612991 
1205	 0.211408287286758 
1206	 0.211338445544243 
1207	 0.211241960525513 
1208	 0.211186900734901 
1209	 0.211080983281136 
1210	 0.211001843214035 
1211	 0.210977822542191 
1212	 0.210907146334648 
1213	 0.210814088582993 
1214	 0.210758790373802 
1215	 0.210694923996925 
1216	 0.21062308549881 
1217	 0.210559263825417 
1218	 0.210451915860176 
1219	 0.210355222225189 
1220	 0.210219785571098 
1221	 0.210146144032478 
1222	 0.210136279463768 
1223	 0.210071384906769 
1224	 0.209996283054352 
1225	 0.20992848277092 
1226	 0.209845036268234 
1227	 0.209738180041313 
1228	 0.209656804800034 
1229	 0.2095987200737 
1230	 0.20950785279274 
1231	 0.209388554096222 
1232	 0.209334686398506 
1233	 0.209266737103462 
1234	 0.209127798676491 
1235	 0.209051251411438 
1236	 0.208958715200424 
1237	 0.208835586905479 
1238	 0.208769053220749 
1239	 0.208791449666023 
1240	 0.208711564540863 
1241	 0.208596602082253 
1242	 0.208507239818573 
1243	 0.208382740616798 
1244	 0.20828016102314 
1245	 0.208193525671959 
1246	 0.208111837506294 
1247	 0.208037242293358 
1248	 0.207953304052353 
1249	 0.207861825823784 
1250	 0.207825019955635 
1251	 0.207743957638741 
1252	 0.207636624574661 
1253	 0.207590892910957 
1254	 0.207518845796585 
1255	 0.207486316561699 
1256	 0.207505032420158 
1257	 0.207474663853645 
1258	 0.207466319203377 
1259	 0.207412004470825 
1260	 0.207290723919868 
1261	 0.207222729921341 
1262	 0.207166388630867 
1263	 0.207091763615608 
1264	 0.207033932209015 
1265	 0.206972762942314 
1266	 0.206884756684303 
1267	 0.206813961267471 
1268	 0.206786826252937 
1269	 0.20672219991684 
1270	 0.206635966897011 
1271	 0.206531018018723 
1272	 0.206467062234879 
1273	 0.206380307674408 
1274	 0.206313148140907 
1275	 0.20627897977829 
1276	 0.206214860081673 
1277	 0.206116944551468 
1278	 0.206021696329117 
1279	 0.205952197313309 
1280	 0.205895230174065 
1281	 0.205881699919701 
1282	 0.205802798271179 
1283	 0.205690786242485 
1284	 0.205594941973686 
1285	 0.205473512411118 
1286	 0.205352112650871 
1287	 0.20526222884655 
1288	 0.205161735415459 
1289	 0.205008700489998 
1290	 0.204885751008987 
1291	 0.204797491431236 
1292	 0.204685136675835 
1293	 0.204554915428162 
1294	 0.204450234770775 
1295	 0.20433335006237 
1296	 0.204221323132515 
1297	 0.204095557332039 
1298	 0.204017087817192 
1299	 0.203960731625557 
1300	 0.203856557607651 
1301	 0.203778430819511 
1302	 0.203686341643333 
1303	 0.203613921999931 
1304	 0.203548714518547 
1305	 0.203481793403625 
1306	 0.203431516885757 
1307	 0.203367650508881 
1308	 0.20326691865921 
1309	 0.203212186694145 
1310	 0.203202024102211 
1311	 0.203155636787415 
1312	 0.203110784292221 
1313	 0.203062817454338 
1314	 0.202999249100685 
1315	 0.202931314706802 
1316	 0.202864542603493 
1317	 0.202801644802094 
1318	 0.20271161198616 
1319	 0.202638760209084 
1320	 0.20261786878109 
1321	 0.202587336301804 
1322	 0.202554970979691 
1323	 0.202553987503052 
1324	 0.202528282999992 
1325	 0.202452629804611 
1326	 0.202387154102325 
1327	 0.202305883169174 
1328	 0.202232599258423 
1329	 0.202159568667412 
1330	 0.202088490128517 
1331	 0.20201201736927 
1332	 0.201947450637817 
1333	 0.201880067586899 
1334	 0.201832219958305 
1335	 0.201844155788422 
1336	 0.201766118407249 
1337	 0.20163431763649 
1338	 0.201537221670151 
1339	 0.201404064893723 
1340	 0.201294392347336 
1341	 0.201234728097916 
1342	 0.201135829091072 
1343	 0.201028913259506 
1344	 0.200911372900009 
1345	 0.200844034552574 
1346	 0.200790658593178 
1347	 0.200688868761063 
1348	 0.200609520077705 
1349	 0.200517922639847 
1350	 0.200395002961159 
1351	 0.200309157371521 
1352	 0.200280949473381 
1353	 0.200165078043938 
1354	 0.200015589594841 
1355	 0.199879258871078 
1356	 0.199701264500618 
1357	 0.199537619948387 
1358	 0.19940085709095 
1359	 0.19923609495163 
1360	 0.199047431349754 
1361	 0.198865711688995 
1362	 0.198682978749275 
1363	 0.198486000299454 
1364	 0.198269680142403 
1365	 0.198079973459244 
1366	 0.197898387908936 
1367	 0.197715893387794 
1368	 0.197558119893074 
1369	 0.197366923093796 
1370	 0.197204366326332 
1371	 0.197057902812958 
1372	 0.196861460804939 
1373	 0.19667449593544 
1374	 0.196479722857475 
1375	 0.196272343397141 
1376	 0.19611331820488 
1377	 0.195955350995064 
1378	 0.195778280496597 
1379	 0.195565164089203 
1380	 0.195341020822525 
1381	 0.195121183991432 
1382	 0.194837167859077 
1383	 0.19455261528492 
1384	 0.194149911403656 
1385	 0.193697959184647 
1386	 0.193142786622047 
1387	 0.192571073770523 
1388	 0.191764399409294 
1389	 0.190853983163834 
1390	 0.189751014113426 
1391	 0.188433691859245 
1392	 0.186994761228561 
1393	 0.185380980372429 
1394	 0.183686465024948 
1395	 0.181759521365166 
1396	 0.17990443110466 
1397	 0.177901953458786 
1398	 0.176065906882286 
1399	 0.174255654215813 
1400	 0.172578111290932 
1401	 0.171040773391724 
1402	 0.169636219739914 
1403	 0.168425977230072 
1404	 0.167340531945229 
1405	 0.166366368532181 
1406	 0.165559932589531 
1407	 0.164839550852776 
1408	 0.164215698838234 
1409	 0.16379189491272 
1410	 0.163511425256729 
1411	 0.163449391722679 
1412	 0.163534745573997 
1413	 0.163923531770706 
1414	 0.1645188331604 
1415	 0.165403038263321 
1416	 0.16662223637104 
1417	 0.167922735214233 
1418	 0.169523656368256 
1419	 0.171076282858849 
1420	 0.172805413603783 
1421	 0.174410283565521 
1422	 0.176107138395309 
1423	 0.177584648132324 
1424	 0.178966239094734 
1425	 0.180231153964996 
1426	 0.181370109319687 
1427	 0.18238377571106 
1428	 0.183272540569305 
1429	 0.184081882238388 
1430	 0.184729263186455 
1431	 0.185353085398674 
1432	 0.185916632413864 
1433	 0.186426565051079 
1434	 0.186865001916885 
1435	 0.187271952629089 
1436	 0.187640324234962 
1437	 0.187926545739174 
1438	 0.188167423009872 
1439	 0.188373431563377 
1440	 0.188548237085342 
1441	 0.188703805208206 
1442	 0.188831001520157 
1443	 0.188907474279404 
1444	 0.188931733369827 
1445	 0.188932061195374 
1446	 0.188960462808609 
1447	 0.188995450735092 
1448	 0.189007312059402 
1449	 0.189034402370453 
1450	 0.189008951187134 
1451	 0.188926532864571 
1452	 0.188875243067741 
1453	 0.188814669847488 
1454	 0.18876913189888 
1455	 0.188726872205734 
1456	 0.188694939017296 
1457	 0.188680827617645 
1458	 0.188645422458649 
1459	 0.188616096973419 
1460	 0.188583269715309 
1461	 0.188519239425659 
1462	 0.188478142023087 
1463	 0.188458845019341 
1464	 0.188423022627831 
1465	 0.188389480113983 
1466	 0.188359394669533 
1467	 0.188318639993668 
1468	 0.188283577561378 
1469	 0.188260912895203 
1470	 0.188228130340576 
1471	 0.188191771507263 
1472	 0.188152611255646 
1473	 0.188107520341873 
1474	 0.188056170940399 
1475	 0.187988221645355 
1476	 0.187951356172562 
1477	 0.187884479761124 
1478	 0.187822788953781 
1479	 0.18780292570591 
1480	 0.187772050499916 
1481	 0.187727332115173 
1482	 0.187701284885406 
1483	 0.18767124414444 
1484	 0.187610864639282 
1485	 0.187572687864304 
1486	 0.187553703784943 
1487	 0.187502026557922 
1488	 0.187452733516693 
1489	 0.187414437532425 
1490	 0.187356054782867 
1491	 0.187299773097038 
1492	 0.187261790037155 
1493	 0.187212735414505 
1494	 0.187158435583115 
1495	 0.187112674117088 
1496	 0.187061235308647 
1497	 0.187033459544182 
1498	 0.187029138207436 
1499	 0.187007158994675 
1500	 0.186997517943382 
1501	 0.186962813138962 
1502	 0.186900064349175 
1503	 0.186863601207733 
1504	 0.186844706535339 
1505	 0.186793088912964 
1506	 0.186721339821815 
1507	 0.186672329902649 
1508	 0.186611995100975 
1509	 0.186558440327644 
1510	 0.186528027057648 
1511	 0.186500206589699 
1512	 0.186475083231926 
1513	 0.186431795358658 
1514	 0.186385303735733 
1515	 0.186345413327217 
1516	 0.186300605535507 
1517	 0.186242893338203 
1518	 0.186187088489532 
1519	 0.186132535338402 
1520	 0.186056837439537 
1521	 0.185986906290054 
1522	 0.185920715332031 
1523	 0.185879111289978 
1524	 0.185862347483635 
1525	 0.185810074210167 
1526	 0.185764491558075 
1527	 0.185705900192261 
1528	 0.18559966981411 
1529	 0.185518607497215 
1530	 0.185448706150055 
1531	 0.185387551784515 
1532	 0.185333460569382 
1533	 0.185285210609436 
1534	 0.185237482190132 
1535	 0.185184061527252 
1536	 0.185152903199196 
1537	 0.185089558362961 
1538	 0.184999942779541 
1539	 0.184962347149849 
1540	 0.184919327497482 
1541	 0.184855088591576 
1542	 0.184818521142006 
1543	 0.18475604057312 
1544	 0.184642717242241 
1545	 0.18456643819809 
1546	 0.184524804353714 
1547	 0.184462010860443 
1548	 0.184390783309937 
1549	 0.18434040248394 
1550	 0.18429009616375 
1551	 0.184210449457169 
1552	 0.184126481413841 
1553	 0.184039905667305 
1554	 0.183966308832169 
1555	 0.183923542499542 
1556	 0.183900728821754 
1557	 0.18386809527874 
1558	 0.183773592114449 
1559	 0.183653846383095 
1560	 0.183564633131027 
1561	 0.183492496609688 
1562	 0.183456167578697 
1563	 0.183432206511497 
1564	 0.183366566896439 
1565	 0.183297231793404 
1566	 0.183188810944557 
1567	 0.183051660656929 
1568	 0.182969957590103 
1569	 0.182919710874557 
1570	 0.182837575674057 
1571	 0.182781100273132 
1572	 0.182700738310814 
1573	 0.182564929127693 
1574	 0.182498350739479 
1575	 0.182470813393593 
1576	 0.182425975799561 
1577	 0.182416558265686 
1578	 0.182352155447006 
1579	 0.182252183556557 
1580	 0.182174071669579 
1581	 0.182080298662186 
1582	 0.181998983025551 
1583	 0.18192595243454 
1584	 0.181853070855141 
1585	 0.181786075234413 
1586	 0.181693464517593 
1587	 0.18160417675972 
1588	 0.181521072983742 
1589	 0.181393459439278 
1590	 0.181330889463425 
1591	 0.181322544813156 
1592	 0.181260883808136 
1593	 0.181205838918686 
1594	 0.181145265698433 
1595	 0.181054398417473 
1596	 0.180983290076256 
1597	 0.180929780006409 
1598	 0.180876433849335 
1599	 0.180819004774094 
1600	 0.180758535861969 
1601	 0.180705562233925 
1602	 0.180643603205681 
1603	 0.180578306317329 
1604	 0.180508062243462 
1605	 0.180423974990845 
1606	 0.180343732237816 
1607	 0.180271610617638 
1608	 0.180185601115227 
1609	 0.180096387863159 
1610	 0.180024296045303 
1611	 0.179932132363319 
1612	 0.179845675826073 
1613	 0.17979371547699 
1614	 0.179712951183319 
1615	 0.179608255624771 
1616	 0.179527223110199 
1617	 0.17943699657917 
1618	 0.179350450634956 
1619	 0.17927747964859 
1620	 0.179213657975197 
1621	 0.179162174463272 
1622	 0.179109156131744 
1623	 0.179066777229309 
1624	 0.179009348154068 
1625	 0.178943336009979 
1626	 0.178863912820816 
1627	 0.178770929574966 
1628	 0.178694188594818 
1629	 0.178620293736458 
1630	 0.17853444814682 
1631	 0.178448885679245 
1632	 0.178356111049652 
1633	 0.178230702877045 
1634	 0.178152829408646 
1635	 0.178115323185921 
1636	 0.178058937191963 
1637	 0.178027153015137 
1638	 0.177955895662308 
1639	 0.177843555808067 
1640	 0.177746132016182 
1641	 0.177631616592407 
1642	 0.177556335926056 
1643	 0.177491039037704 
1644	 0.177448883652687 
1645	 0.177466571331024 
1646	 0.177408590912819 
1647	 0.177323237061501 
1648	 0.177267283201218 
1649	 0.177168115973473 
1650	 0.177106469869614 
1651	 0.177110716700554 
1652	 0.177060529589653 
1653	 0.176986262202263 
1654	 0.176903456449509 
1655	 0.176793679594994 
1656	 0.176706746220589 
1657	 0.176613360643387 
1658	 0.176550567150116 
1659	 0.176512435078621 
1660	 0.176459655165672 
1661	 0.176414743065834 
1662	 0.176365584135056 
1663	 0.176322773098946 
1664	 0.176267027854919 
1665	 0.176201343536377 
1666	 0.176178157329559 
1667	 0.176095217466354 
1668	 0.176025703549385 
1669	 0.175961226224899 
1670	 0.175861105322838 
1671	 0.175774663686752 
1672	 0.175688818097115 
1673	 0.175625085830688 
1674	 0.175557821989059 
1675	 0.17549766600132 
1676	 0.175448834896088 
1677	 0.17536273598671 
1678	 0.175286650657654 
1679	 0.175202593207359 
1680	 0.175142079591751 
1681	 0.175116568803787 
1682	 0.175048619508743 
1683	 0.175006955862045 
1684	 0.174979135394096 
1685	 0.174908027052879 
1686	 0.174865022301674 
1687	 0.174833357334137 
1688	 0.174756184220314 
1689	 0.174656867980957 
1690	 0.174586549401283 
1691	 0.174510359764099 
1692	 0.174393653869629 
1693	 0.174324929714203 
1694	 0.174261435866356 
1695	 0.174150183796883 
1696	 0.174060702323914 
1697	 0.17397566139698 
1698	 0.173896610736847 
1699	 0.173849418759346 
1700	 0.173828512430191 
1701	 0.173819378018379 
1702	 0.173764318227768 
1703	 0.173663467168808 
1704	 0.173570021986961 
1705	 0.173498883843422 
1706	 0.173427924513817 
1707	 0.173375710844994 
1708	 0.173340424895287 
1709	 0.17323824763298 
1710	 0.17312940955162 
1711	 0.17305463552475 
1712	 0.172958165407181 
1713	 0.172898218035698 
1714	 0.172869190573692 
1715	 0.172799617052078 
1716	 0.172732576727867 
1717	 0.172682970762253 
1718	 0.172618582844734 
1719	 0.172578662633896 
1720	 0.1725123077631 
1721	 0.172407403588295 
1722	 0.172292739152908 
1723	 0.172144189476967 
1724	 0.172035574913025 
1725	 0.171970173716545 
1726	 0.171905040740967 
1727	 0.17184291779995 
1728	 0.171799585223198 
1729	 0.171745076775551 
1730	 0.171675458550453 
1731	 0.171598985791206 
1732	 0.171527191996574 
1733	 0.171447560191154 
1734	 0.17137810587883 
1735	 0.171322450041771 
1736	 0.17124317586422 
1737	 0.171166181564331 
1738	 0.17106568813324 
1739	 0.171008601784706 
1740	 0.171007961034775 
1741	 0.170949786901474 
1742	 0.170901536941528 
1743	 0.170800372958183 
1744	 0.170652702450752 
1745	 0.170582994818687 
1746	 0.170507088303566 
1747	 0.170439407229424 
1748	 0.170417591929436 
1749	 0.170323312282562 
1750	 0.170189410448074 
1751	 0.170053645968437 
1752	 0.169904112815857 
1753	 0.169801309704781 
1754	 0.169737845659256 
1755	 0.16968446969986 
1756	 0.169629856944084 
1757	 0.169547662138939 
1758	 0.16946966946125 
1759	 0.169371753931046 
1760	 0.16920006275177 
1761	 0.169070944190025 
1762	 0.168981850147247 
1763	 0.168891996145248 
1764	 0.168899908661842 
1765	 0.168926268815994 
1766	 0.168864011764526 
1767	 0.168743208050728 
1768	 0.16863052546978 
1769	 0.168533876538277 
1770	 0.168474301695824 
1771	 0.168507114052773 
1772	 0.168506860733032 
1773	 0.168426886200905 
1774	 0.168351605534554 
1775	 0.168218076229095 
1776	 0.168108746409416 
1777	 0.168013513088226 
1778	 0.167957156896591 
1779	 0.167951911687851 
1780	 0.167912736535072 
1781	 0.167928278446198 
1782	 0.167902454733849 
1783	 0.167853966355324 
1784	 0.167839929461479 
1785	 0.167755201458931 
1786	 0.167690947651863 
1787	 0.167622789740562 
1788	 0.167508646845818 
1789	 0.167451605200768 
1790	 0.167379811406136 
1791	 0.167284682393074 
1792	 0.167210802435875 
1793	 0.167176827788353 
1794	 0.167140230536461 
1795	 0.167085036635399 
1796	 0.167025923728943 
1797	 0.166916102170944 
1798	 0.166834488511086 
1799	 0.166790679097176 
1800	 0.166724845767021 
1801	 0.166649088263512 
1802	 0.166521489620209 
1803	 0.166386485099792 
1804	 0.166310802102089 
1805	 0.166254833340645 
1806	 0.166232526302338 
1807	 0.166206210851669 
1808	 0.166146025061607 
1809	 0.166061222553253 
1810	 0.165981233119965 
1811	 0.165887355804443 
1812	 0.16581417620182 
1813	 0.165776655077934 
1814	 0.165695622563362 
1815	 0.165631011128426 
1816	 0.165535897016525 
1817	 0.165416643023491 
1818	 0.165290847420692 
1819	 0.165203869342804 
1820	 0.165126949548721 
1821	 0.165065929293633 
1822	 0.165037527680397 
1823	 0.164946168661118 
1824	 0.164910450577736 
1825	 0.164788782596588 
1826	 0.164597749710083 
1827	 0.164509356021881 
1828	 0.16434870660305 
1829	 0.164257779717445 
1830	 0.164215981960297 
1831	 0.161544486880302 
1832	 0.161404982209206 
1833	 0.161373376846313 
1834	 0.161563292145729 
1835	 0.161550283432007 
1836	 0.161417722702026 
1837	 0.161350220441818 
1838	 0.161271497607231 
1839	 0.161093443632126 
1840	 0.161057010293007 
1841	 0.161073133349419 
1842	 0.160967797040939 
1843	 0.160878926515579 
1844	 0.16083487868309 
1845	 0.160791262984276 
1846	 0.160721108317375 
1847	 0.160672307014465 
1848	 0.160657927393913 
1849	 0.160584598779678 
1850	 0.160561069846153 
1851	 0.160578906536102 
1852	 0.160521671175957 
1853	 0.160454779863358 
1854	 0.16041474044323 
1855	 0.160357549786568 
1856	 0.160313442349434 
1857	 0.16026209294796 
1858	 0.160214513540268 
1859	 0.160102277994156 
1860	 0.160027116537094 
1861	 0.160027861595154 
1862	 0.159979403018951 
1863	 0.159867972135544 
1864	 0.159775391221046 
1865	 0.15963377058506 
1866	 0.159498617053032 
1867	 0.159342959523201 
1868	 0.15925769507885 
1869	 0.159142315387726 
1870	 0.159073650836945 
1871	 0.15903528034687 
1872	 0.158899426460266 
1873	 0.158685356378555 
1874	 0.158428102731705 
1875	 0.158202961087227 
1876	 0.157990798354149 
1877	 0.157765671610832 
1878	 0.1575758010149 
1879	 0.15736748278141 
1880	 0.157115012407303 
1881	 0.156855225563049 
1882	 0.156579464673996 
1883	 0.156288117170334 
1884	 0.155928373336792 
1885	 0.155591383576393 
1886	 0.155328571796417 
1887	 0.155061081051826 
1888	 0.15475395321846 
1889	 0.154451757669449 
1890	 0.154104396700859 
1891	 0.15374943614006 
1892	 0.153359621763229 
1893	 0.152971625328064 
1894	 0.15262633562088 
1895	 0.152220219373703 
1896	 0.151850938796997 
1897	 0.151546567678452 
1898	 0.151251494884491 
1899	 0.15095429122448 
1900	 0.150681540369987 
1901	 0.150381207466125 
1902	 0.150116890668869 
1903	 0.149827644228935 
1904	 0.149492189288139 
1905	 0.149201020598412 
1906	 0.14891816675663 
1907	 0.148648276925087 
1908	 0.148393824696541 
1909	 0.148215711116791 
1910	 0.148055404424667 
1911	 0.147922992706299 
1912	 0.147743135690689 
1913	 0.14757277071476 
1914	 0.147355318069458 
1915	 0.147127121686935 
1916	 0.147017017006874 
1917	 0.146978110074997 
1918	 0.146922126412392 
1919	 0.146828845143318 
1920	 0.146639615297318 
1921	 0.146427154541016 
1922	 0.146289348602295 
1923	 0.146194308996201 
1924	 0.146109238266945 
1925	 0.146043345332146 
1926	 0.146030336618423 
1927	 0.145995989441872 
1928	 0.145893722772598 
1929	 0.145843163132668 
1930	 0.145805597305298 
1931	 0.145691350102425 
1932	 0.145666614174843 
1933	 0.145644932985306 
1934	 0.145666494965553 
1935	 0.145588099956512 
1936	 0.145531699061394 
1937	 0.145488500595093 
1938	 0.145377278327942 
1939	 0.145340457558632 
1940	 0.145407006144524 
1941	 0.145415395498276 
1942	 0.145383566617966 
1943	 0.145376563072205 
1944	 0.145384848117828 
1945	 0.145363986492157 
1946	 0.145374447107315 
1947	 0.145434513688087 
1948	 0.145495176315308 
1949	 0.145489558577538 
1950	 0.145476996898651 
1951	 0.145489320158958 
1952	 0.145504549145699 
1953	 0.145543143153191 
1954	 0.145609900355339 
1955	 0.145646661520004 
1956	 0.145644769072533 
1957	 0.145641222596169 
1958	 0.145583182573318 
1959	 0.145580127835274 
1960	 0.145599350333214 
1961	 0.145609095692635 
1962	 0.145662367343903 
1963	 0.145745798945427 
1964	 0.145779341459274 
1965	 0.145846232771873 
1966	 0.145937755703926 
1967	 0.145934000611305 
1968	 0.145943477749825 
1969	 0.145941630005836 
1970	 0.145972698926926 
1971	 0.145993635058403 
1972	 0.146035954356194 
1973	 0.146131530404091 
1974	 0.146172061562538 
1975	 0.146195575594902 
1976	 0.146215155720711 
1977	 0.14625857770443 
1978	 0.146283164620399 
1979	 0.146314829587936 
1980	 0.146460145711899 
1981	 0.146526336669922 
1982	 0.146553799510002 
1983	 0.146600633859634 
1984	 0.146618574857712 
1985	 0.146656319499016 
1986	 0.146683469414711 
1987	 0.1468166410923 
1988	 0.146933555603027 
1989	 0.146951287984848 
1990	 0.146968051791191 
1991	 0.147047802805901 
1992	 0.147115424275398 
1993	 0.147168323397636 
1994	 0.147218152880669 
1995	 0.147247418761253 
1996	 0.14730578660965 
1997	 0.147371113300323 
1998	 0.147430256009102 
1999	 0.147509902715683 
2000	 0.147619441151619 
2001	 0.147576123476028 
2002	 0.147599503397942 
2003	 0.147706791758537 
2004	 0.147723615169525 
2005	 0.147797733545303 
2006	 0.147922024130821 
2007	 0.147989302873611 
2008	 0.147985935211182 
2009	 0.14801162481308 
2010	 0.148052513599396 
2011	 0.14810873568058 
2012	 0.148171991109848 
2013	 0.148214489221573 
2014	 0.148297160863876 
2015	 0.148270934820175 
2016	 0.148207262158394 
2017	 0.148239985108376 
2018	 0.148317396640778 
2019	 0.148420333862305 
2020	 0.148522928357124 
2021	 0.148700222373009 
2022	 0.14875616133213 
2023	 0.148715063929558 
2024	 0.148787930607796 
2025	 0.14886075258255 
2026	 0.148919016122818 
2027	 0.149061068892479 
2028	 0.149190902709961 
2029	 0.149061545729637 
2030	 0.148980334401131 
2031	 0.149081110954285 
2032	 0.149060502648354 
2033	 0.149038165807724 
2034	 0.149119272828102 
2035	 0.149148210883141 
2036	 0.149055257439613 
2037	 0.149079874157906 
2038	 0.14923931658268 
2039	 0.149280980229378 
2040	 0.149279341101646 
2041	 0.149282097816467 
2042	 0.149227634072304 
2043	 0.14921498298645 
2044	 0.149212062358856 
2045	 0.149234518408775 
2046	 0.149316608905792 
2047	 0.149392068386078 
2048	 0.149396553635597 
2049	 0.149373948574066 
2050	 0.149369224905968 
2051	 0.149282529950142 
2052	 0.149257302284241 
2053	 0.149317279458046 
2054	 0.149340510368347 
2055	 0.149325311183929 
2056	 0.149341240525246 
2057	 0.149381875991821 
2058	 0.149392932653427 
2059	 0.149465054273605 
2060	 0.149567320942879 
2061	 0.149534836411476 
2062	 0.149508789181709 
2063	 0.14950455725193 
2064	 0.14941480755806 
2065	 0.149398013949394 
2066	 0.149481207132339 
2067	 0.149507999420166 
2068	 0.149526432156563 
2069	 0.14952041208744 
2070	 0.149493455886841 
2071	 0.149467945098877 
2072	 0.149419173598289 
2073	 0.149367228150368 
2074	 0.14927813410759 
2075	 0.149245217442513 
2076	 0.149196177721024 
2077	 0.14910763502121 
2078	 0.149165600538254 
2079	 0.149177834391594 
2080	 0.149120539426804 
2081	 0.149001851677895 
2082	 0.14896397292614 
2083	 0.14893826842308 
2084	 0.14884540438652 
2085	 0.148739278316498 
2086	 0.148662820458412 
2087	 0.148581847548485 
2088	 0.14842776954174 
2089	 0.14827498793602 
2090	 0.148114413022995 
2091	 0.147949814796448 
2092	 0.147747993469238 
2093	 0.147522211074829 
2094	 0.147402465343475 
2095	 0.147292003035545 
2096	 0.147091627120972 
2097	 0.1469736546278 
2098	 0.147028207778931 
2099	 0.146897673606873 
2100	 0.146642357110977 
2101	 0.1464823782444 
2102	 0.146289423108101 
2103	 0.146145954728127 
2104	 0.146096512675285 
2105	 0.145968168973923 
2106	 0.145809888839722 
2107	 0.145654812455177 
2108	 0.145418912172318 
2109	 0.145248040556908 
2110	 0.145130470395088 
2111	 0.144982114434242 
2112	 0.144952923059464 
2113	 0.144932314753532 
2114	 0.144827723503113 
2115	 0.144632995128632 
2116	 0.144581064581871 
2117	 0.144536212086678 
2118	 0.144508227705956 
2119	 0.144607841968536 
2120	 0.144636690616608 
2121	 0.144588693976402 
2122	 0.144595295190811 
2123	 0.14464995265007 
2124	 0.144678801298141 
2125	 0.14466804265976 
2126	 0.144741833209991 
2127	 0.144872218370438 
2128	 0.144861176609993 
2129	 0.144777715206146 
2130	 0.1446792781353 
2131	 0.144564509391785 
2132	 0.144529059529305 
2133	 0.144475534558296 
2134	 0.144519373774529 
2135	 0.14446134865284 
2136	 0.144355654716492 
2137	 0.144238919019699 
2138	 0.14408777654171 
2139	 0.143959075212479 
2140	 0.143746048212051 
2141	 0.143632858991623 
2142	 0.143677175045013 
2143	 0.143585950136185 
2144	 0.143521785736084 
2145	 0.143336340785027 
2146	 0.143021360039711 
2147	 0.142771393060684 
2148	 0.142497360706329 
2149	 0.14214825630188 
2150	 0.141954809427261 
2151	 0.141710385680199 
2152	 0.14143443107605 
2153	 0.141261830925941 
2154	 0.14092943072319 
2155	 0.140394151210785 
2156	 0.140001118183136 
2157	 0.1396614164114 
2158	 0.13920384645462 
2159	 0.138752594590187 
2160	 0.138273149728775 
2161	 0.137669712305069 
2162	 0.137105107307434 
2163	 0.136604905128479 
2164	 0.136023655533791 
2165	 0.13535150885582 
2166	 0.134681791067123 
2167	 0.13396243751049 
2168	 0.133242681622505 
2169	 0.132603198289871 
2170	 0.13192318379879 
2171	 0.131131678819656 
2172	 0.130283296108246 
2173	 0.129365861415863 
2174	 0.128306671977043 
2175	 0.127259597182274 
2176	 0.126163601875305 
2177	 0.125091761350632 
2178	 0.123968869447708 
2179	 0.122874088585377 
2180	 0.121781326830387 
2181	 0.120738007128239 
2182	 0.119793057441711 
2183	 0.118703342974186 
2184	 0.117531083524227 
2185	 0.116438463330269 
2186	 0.115283571183681 
2187	 0.114087052643299 
2188	 0.113144382834435 
2189	 0.112302549183369 
2190	 0.111466333270073 
2191	 0.110691346228123 
2192	 0.10988611727953 
2193	 0.109151042997837 
2194	 0.108608692884445 
2195	 0.108166918158531 
2196	 0.107768304646015 
2197	 0.10751885920763 
2198	 0.107327848672867 
2199	 0.107115916907787 
2200	 0.107079029083252 
2201	 0.107265874743462 
2202	 0.107433952391148 
2203	 0.10765041410923 
2204	 0.107965603470802 
2205	 0.108328394591808 
2206	 0.108787275850773 
2207	 0.109401181340218 
2208	 0.109984390437603 
2209	 0.110574930906296 
2210	 0.111283153295517 
2211	 0.112051889300346 
2212	 0.112882845103741 
2213	 0.113727279007435 
2214	 0.114546917378902 
2215	 0.115281514823437 
2216	 0.115932554006577 
2217	 0.116695329546928 
2218	 0.117627687752247 
2219	 0.118435218930244 
2220	 0.119111955165863 
2221	 0.119672521948814 
2222	 0.120134025812149 
2223	 0.12070482224226 
2224	 0.121320061385632 
2225	 0.12187734246254 
2226	 0.12251615524292 
2227	 0.123024880886078 
2228	 0.123421922326088 
2229	 0.123766236007214 
2230	 0.124010905623436 
2231	 0.124318890273571 
2232	 0.124557510018349 
2233	 0.124902196228504 
2234	 0.125468626618385 
2235	 0.125748127698898 
2236	 0.125791624188423 
2237	 0.126017838716507 
2238	 0.126179933547974 
2239	 0.126423388719559 
2240	 0.126805946230888 
2241	 0.12699781358242 
2242	 0.127091586589813 
2243	 0.127296671271324 
2244	 0.127514377236366 
2245	 0.127917692065239 
2246	 0.128340274095535 
2247	 0.128387540578842 
2248	 0.128404542803764 
2249	 0.128630340099335 
2250	 0.128871142864227 
2251	 0.129025101661682 
2252	 0.129065483808517 
2253	 0.128947466611862 
2254	 0.129021465778351 
2255	 0.129027336835861 
2256	 0.129196017980576 
2257	 0.129694804549217 
2258	 0.129858374595642 
2259	 0.129803508520126 
2260	 0.129927515983582 
2261	 0.130067080259323 
2262	 0.130140364170074 
2263	 0.130284190177917 
2264	 0.130403161048889 
2265	 0.130386635661125 
2266	 0.130425050854683 
2267	 0.130569279193878 
2268	 0.130647495388985 
2269	 0.130688384175301 
2270	 0.130687043070793 
2271	 0.130631074309349 
2272	 0.130609393119812 
2273	 0.130606800317764 
2274	 0.130536839365959 
2275	 0.130535081028938 
2276	 0.130614712834358 
2277	 0.130539685487747 
2278	 0.13052798807621 
2279	 0.130600064992905 
2280	 0.130499139428139 
2281	 0.130276784300804 
2282	 0.130123972892761 
2283	 0.130063086748123 
2284	 0.129982650279999 
2285	 0.12999564409256 
2286	 0.130035445094109 
2287	 0.129941955208778 
2288	 0.129774749279022 
2289	 0.129702717065811 
2290	 0.129741534590721 
2291	 0.129512652754784 
2292	 0.129083544015884 
2293	 0.128786534070969 
2294	 0.128345161676407 
2295	 0.12796539068222 
2296	 0.127734735608101 
2297	 0.127491623163223 
2298	 0.127146333456039 
2299	 0.126930862665176 
2300	 0.126950398087502 
2301	 0.126664534211159 
2302	 0.12616141140461 
2303	 0.12586835026741 
2304	 0.125580221414566 
2305	 0.125225871801376 
2306	 0.12496916949749 
2307	 0.124718450009823 
2308	 0.124422699213028 
2309	 0.124008774757385 
2310	 0.123548664152622 
2311	 0.12316757440567 
2312	 0.122628174722195 
2313	 0.122237846255302 
2314	 0.122170373797417 
2315	 0.121868208050728 
2316	 0.12142463773489 
2317	 0.120986960828304 
2318	 0.120712280273438 
2319	 0.120324835181236 
2320	 0.120057314634323 
2321	 0.119731232523918 
2322	 0.119112245738506 
2323	 0.118608579039574 
2324	 0.118269674479961 
2325	 0.118029944598675 
2326	 0.117803484201431 
2327	 0.117463394999504 
2328	 0.117052748799324 
2329	 0.116402931511402 
2330	 0.115736082196236 
2331	 0.115466497838497 
2332	 0.11510568857193 
2333	 0.114663079380989 
2334	 0.114572457969189 
2335	 0.114236511290073 
2336	 0.113702870905399 
2337	 0.113451972603798 
2338	 0.112994514405727 
2339	 0.11249203979969 
2340	 0.112412393093109 
2341	 0.112318716943264 
2342	 0.112210884690285 
2343	 0.112101711332798 
2344	 0.111699663102627 
2345	 0.111426971852779 
2346	 0.111335977911949 
2347	 0.11124761402607 
2348	 0.111366547644138 
2349	 0.111407123506069 
2350	 0.111387588083744 
2351	 0.111238121986389 
2352	 0.11137081682682 
2353	 0.111641809344292 
2354	 0.111698508262634 
2355	 0.111770734190941 
2356	 0.111900798976421 
2357	 0.1118328794837 
2358	 0.112029775977135 
2359	 0.112631879746914 
2360	 0.112907335162163 
2361	 0.113089211285114 
2362	 0.113116323947906 
2363	 0.112889610230923 
2364	 0.112871244549751 
2365	 0.112845376133919 
2366	 0.112846180796623 
2367	 0.113008327782154 
2368	 0.113041453063488 
2369	 0.112894557416439 
2370	 0.112955145537853 
2371	 0.113235101103783 
2372	 0.113197140395641 
2373	 0.113085053861141 
2374	 0.112899161875248 
2375	 0.112281054258347 
2376	 0.11223042011261 
2377	 0.112614385783672 
2378	 0.112678118050098 
2379	 0.112793490290642 
2380	 0.11294923722744 
2381	 0.112944982945919 
2382	 0.112943239510059 
2383	 0.113227806985378 
2384	 0.113200776278973 
2385	 0.112676464021206 
2386	 0.112672425806522 
2387	 0.112943977117538 
2388	 0.112915351986885 
2389	 0.113027833402157 
2390	 0.113012090325356 
2391	 0.112659059464931 
2392	 0.112546153366566 
2393	 0.112714469432831 
2394	 0.112539112567902 
2395	 0.112078920006752 
2396	 0.111941874027252 
2397	 0.111721023917198 
2398	 0.111688673496246 
2399	 0.112102776765823 
2400	 0.112086489796638 
2401	 0.112004414200783 
2402	 0.111795403063297 
2403	 0.111166328191757 
2404	 0.110914558172226 
2405	 0.110817596316338 
2406	 0.110606551170349 
2407	 0.110527202486992 
2408	 0.110451340675354 
2409	 0.110289596021175 
2410	 0.110083341598511 
2411	 0.109918773174286 
2412	 0.109719686210155 
2413	 0.109396487474442 
2414	 0.109180845320225 
2415	 0.109230808913708 
2416	 0.108942359685898 
2417	 0.108256168663502 
2418	 0.107954367995262 
2419	 0.107705540955067 
2420	 0.1074178814888 
2421	 0.107548773288727 
2422	 0.107279904186726 
2423	 0.106457464396954 
2424	 0.106226086616516 
2425	 0.106176808476448 
2426	 0.106018282473087 
2427	 0.106250956654549 
2428	 0.106026813387871 
2429	 0.105372570455074 
2430	 0.105250909924507 
2431	 0.105266340076923 
2432	 0.105059921741486 
2433	 0.104968771338463 
2434	 0.104889385402203 
2435	 0.104621298611164 
2436	 0.104562826454639 
2437	 0.104768186807632 
2438	 0.104827687144279 
2439	 0.104836940765381 
2440	 0.10466555505991 
2441	 0.104477278888226 
2442	 0.104359053075314 
2443	 0.103903137147427 
2444	 0.103951022028923 
2445	 0.104482963681221 
2446	 0.104561299085617 
2447	 0.104586414992809 
2448	 0.104669682681561 
2449	 0.104571901261806 
2450	 0.104738466441631 
2451	 0.105255462229252 
2452	 0.105194851756096 
2453	 0.104829721152782 
2454	 0.104842334985733 
2455	 0.10450242459774 
2456	 0.10455846786499 
2457	 0.105390578508377 
2458	 0.105110839009285 
2459	 0.104768171906471 
2460	 0.105063818395138 
2461	 0.104617118835449 
2462	 0.104648478329182 
2463	 0.105124980211258 
2464	 0.104021526873112 
2465	 0.103860154747963 
2466	 0.104159638285637 
2467	 0.1043995693326 
2468	 0.105594731867313 
2469	 0.106181383132935 
2470	 0.106067173182964 
2471	 0.106256395578384 
2472	 0.106798030436039 
2473	 0.106702163815498 
2474	 0.106149047613144 
2475	 0.105818390846252 
2476	 0.104586750268936 
2477	 0.104364216327667 
2478	 0.105264119803905 
2479	 0.105666242539883 
2480	 0.106693863868713 
2481	 0.106870353221893 
2482	 0.105840928852558 
2483	 0.105840787291527 
2484	 0.106452606618404 
2485	 0.106145769357681 
2486	 0.105783514678478 
2487	 0.105544351041317 
2488	 0.103930428624153 
2489	 0.103939227759838 
2490	 0.105965577065945 
2491	 0.106265924870968 
2492	 0.106105238199234 
2493	 0.106244415044785 
2494	 0.105255618691444 
2495	 0.105650164186954 
2496	 0.107779137790203 
2497	 0.108106195926666 
2498	 0.107969157397747 
2499	 0.107890047132969 
2500	 0.10668420791626 
