
Text conversion of header file \A_MEDIDAS\PROJETOS\BRASIL\BLOCO GAVIAO\JACOBINA\CANIF27\sco\CANIF27_023.26_00003.asd.ref
 -------------------------------------------------------------
                                                                                                                                                            
The instrument number was  16586/1
New ASD spectrum file: Program version = 6.00 file version = 1.00
Spectrum saved: 10/16/2018 at 10:08:05
VNIR integration time : 34
VNIR channel 1 wavelength = 350 wavelength step = 1
There were 50 samples per data value
xmin = 350 xmax= 2500
ymin= 0 ymax= 1.25
The instrument digitizes spectral values to 16 bits
SWIR1 gain was 214 offset was 2097
SWIR2 gain was 513 offset was 2267
Join between VNIR and SWIR1 was 1000 nm
Join between SWIR1 and SWIR2 was 1830 nm
Absolute Reflectance is Enabled
The Absolute Reflectance File is abs165861.ref
VNIR dark signal subtracted
50 dark measurements taken Tue Oct 16 09:52:54 2018
DCC value was 0
Data is compared to a white reference:
60 white reference measurements taken Tue Oct 16 09:53:02 2018
There was no foreoptic attached
Spectrum file is reflectance data
GPS-Latitude is S0
GPS-Longitude is E0
GPS-Altitude is 0
GPS-UTC is Wed Dec 31 17:00:00 1969

Smart Detector
Serial#  0
Signal (A)  0.000E00
Dark (A)  0.000E00
Ref (A)  0.000E00
Status  0 - Uninitialized
Gain  E-4
Averaging  0
Temp (C)  0.0
Humid (%)  0.0

Reflectance Absolute
Wavelength	CANIF27_23.26_00003.asd.ref
350	 0.134811908006668 
351	 0.119450159370899 
352	 0.128032103180885 
353	 0.137481331825256 
354	 0.131006568670273 
355	 0.131850928068161 
356	 0.131957694888115 
357	 0.131753295660019 
358	 0.132596284151077 
359	 0.127943992614746 
360	 0.130410552024841 
361	 0.137624591588974 
362	 0.137690514326096 
363	 0.129727378487587 
364	 0.128811806440353 
365	 0.136845052242279 
366	 0.135835230350494 
367	 0.13523605465889 
368	 0.135757461190224 
369	 0.136687889695168 
370	 0.13916152715683 
371	 0.139804303646088 
372	 0.139188006520271 
373	 0.139255434274673 
374	 0.137475177645683 
375	 0.138948604464531 
376	 0.143292382359505 
377	 0.144359841942787 
378	 0.143164128065109 
379	 0.143186420202255 
380	 0.145539313554764 
381	 0.14478725194931 
382	 0.145381972193718 
383	 0.147240310907364 
384	 0.148671701550484 
385	 0.149002388119698 
386	 0.150282368063927 
387	 0.152473405003548 
388	 0.153593927621841 
389	 0.152954339981079 
390	 0.15275040268898 
391	 0.154445812106133 
392	 0.157483339309692 
393	 0.157737344503403 
394	 0.156409993767738 
395	 0.156074419617653 
396	 0.155899345874786 
397	 0.157994106411934 
398	 0.160984382033348 
399	 0.161213159561157 
400	 0.162119567394257 
401	 0.162261739373207 
402	 0.161369681358337 
403	 0.162427634000778 
404	 0.162770509719849 
405	 0.163336113095284 
406	 0.165167108178139 
407	 0.165408089756966 
408	 0.166155621409416 
409	 0.167304769158363 
410	 0.16736726462841 
411	 0.167818382382393 
412	 0.168248668313026 
413	 0.168614208698273 
414	 0.16986808180809 
415	 0.170276939868927 
416	 0.170181959867477 
417	 0.170403733849525 
418	 0.171328082680702 
419	 0.171359702944756 
420	 0.171260103583336 
421	 0.172875165939331 
422	 0.173234894871712 
423	 0.17367547750473 
424	 0.174595296382904 
425	 0.174216836690903 
426	 0.174701482057571 
427	 0.175368577241898 
428	 0.175374507904053 
429	 0.176133662462234 
430	 0.176271930336952 
431	 0.176178872585297 
432	 0.177146285772324 
433	 0.177816212177277 
434	 0.178348943591118 
435	 0.178913146257401 
436	 0.179429739713669 
437	 0.179392963647842 
438	 0.179640293121338 
439	 0.180826917290688 
440	 0.181706234812737 
441	 0.182327508926392 
442	 0.182650819420815 
443	 0.182636350393295 
444	 0.182940289378166 
445	 0.183470323681831 
446	 0.18403822183609 
447	 0.184475347399712 
448	 0.184964373707771 
449	 0.185418382287025 
450	 0.185721918940544 
451	 0.185963839292526 
452	 0.186135485768318 
453	 0.186318799853325 
454	 0.18665075302124 
455	 0.18714702129364 
456	 0.18736144900322 
457	 0.187254965305328 
458	 0.187675982713699 
459	 0.18800076842308 
460	 0.188137546181679 
461	 0.188213437795639 
462	 0.188533037900925 
463	 0.188790678977966 
464	 0.188914403319359 
465	 0.189061492681503 
466	 0.189243316650391 
467	 0.18939197063446 
468	 0.189460828900337 
469	 0.189475700259209 
470	 0.189533516764641 
471	 0.189667969942093 
472	 0.189853921532631 
473	 0.189918264746666 
474	 0.190005734562874 
475	 0.190157532691956 
476	 0.190282061696053 
477	 0.190442249178886 
478	 0.190628588199615 
479	 0.190810948610306 
480	 0.190913185477257 
481	 0.191295892000198 
482	 0.19169694185257 
483	 0.191673010587692 
484	 0.191962718963623 
485	 0.192338556051254 
486	 0.192615330219269 
487	 0.192790344357491 
488	 0.193088620901108 
489	 0.19338670372963 
490	 0.193577602505684 
491	 0.193938553333282 
492	 0.194343879818916 
493	 0.194676861166954 
494	 0.194874942302704 
495	 0.19531911611557 
496	 0.195762664079666 
497	 0.196067750453949 
498	 0.196409896016121 
499	 0.196797728538513 
500	 0.197139963507652 
501	 0.197386711835861 
502	 0.197823584079742 
503	 0.198198467493057 
504	 0.198481872677803 
505	 0.198835849761963 
506	 0.199274465441704 
507	 0.199635088443756 
508	 0.199886858463287 
509	 0.200345396995544 
510	 0.200768202543259 
511	 0.201128661632538 
512	 0.201473712921143 
513	 0.201790034770966 
514	 0.202170833945274 
515	 0.202605426311493 
516	 0.202973917126656 
517	 0.20322659611702 
518	 0.20349383354187 
519	 0.203845769166946 
520	 0.204082787036896 
521	 0.204384803771973 
522	 0.204720988869667 
523	 0.204979345202446 
524	 0.205244287848473 
525	 0.205552607774734 
526	 0.205842807888985 
527	 0.205932885408401 
528	 0.206178814172745 
529	 0.206494435667992 
530	 0.206723362207413 
531	 0.206866174936295 
532	 0.207102313637733 
533	 0.207373037934303 
534	 0.207490056753159 
535	 0.207625851035118 
536	 0.207791015505791 
537	 0.207961544394493 
538	 0.208090469241142 
539	 0.208233177661896 
540	 0.208374530076981 
541	 0.20849746465683 
542	 0.208673104643822 
543	 0.208890363574028 
544	 0.209129825234413 
545	 0.209362387657166 
546	 0.209448486566544 
547	 0.209558129310608 
548	 0.209781616926193 
549	 0.209919646382332 
550	 0.210054606199265 
551	 0.21019059419632 
552	 0.210314154624939 
553	 0.210480928421021 
554	 0.210589244961739 
555	 0.210613012313843 
556	 0.210620552301407 
557	 0.210764616727829 
558	 0.210976406931877 
559	 0.211172461509705 
560	 0.211378991603851 
561	 0.211657047271729 
562	 0.211885243654251 
563	 0.211905807256699 
564	 0.212071001529694 
565	 0.212247982621193 
566	 0.212374627590179 
567	 0.212557569146156 
568	 0.212749153375626 
569	 0.212867498397827 
570	 0.212845534086227 
571	 0.212683603167534 
572	 0.212584435939789 
573	 0.212629705667496 
574	 0.212804839015007 
575	 0.213135734200478 
576	 0.213460117578506 
577	 0.213689044117928 
578	 0.213917121291161 
579	 0.214109227061272 
580	 0.21422903239727 
581	 0.214267268776894 
582	 0.21433362364769 
583	 0.214396819472313 
584	 0.214430347084999 
585	 0.214419543743134 
586	 0.214368060231209 
587	 0.214319303631783 
588	 0.214373648166656 
589	 0.214779794216156 
590	 0.215127289295197 
591	 0.21531917154789 
592	 0.215397864580154 
593	 0.215353757143021 
594	 0.215373814105988 
595	 0.21551351249218 
596	 0.215670794248581 
597	 0.215647116303444 
598	 0.215493083000183 
599	 0.215309977531433 
600	 0.215161338448524 
601	 0.214968830347061 
602	 0.214732423424721 
603	 0.214500993490219 
604	 0.214354172348976 
605	 0.21434186398983 
606	 0.214446231722832 
607	 0.214574337005615 
608	 0.214657291769981 
609	 0.214677259325981 
610	 0.214657172560692 
611	 0.214688882231712 
612	 0.214670643210411 
613	 0.214577034115791 
614	 0.214443728327751 
615	 0.214366182684898 
616	 0.214379280805588 
617	 0.2144475877285 
618	 0.214446887373924 
619	 0.214392989873886 
620	 0.214345410466194 
621	 0.214357987046242 
622	 0.214397564530373 
623	 0.214472740888596 
624	 0.214549690485001 
625	 0.214576736092567 
626	 0.214648723602295 
627	 0.214743062853813 
628	 0.214835926890373 
629	 0.214929029345512 
630	 0.215042546391487 
631	 0.215150400996208 
632	 0.215240553021431 
633	 0.215425118803978 
634	 0.215599611401558 
635	 0.215732827782631 
636	 0.215863689780235 
637	 0.216072425246239 
638	 0.216287791728973 
639	 0.216457292437553 
640	 0.216614440083504 
641	 0.216703832149506 
642	 0.216815859079361 
643	 0.217015147209167 
644	 0.217012599110603 
645	 0.21708208322525 
646	 0.217261120676994 
647	 0.217384412884712 
648	 0.217526778578758 
649	 0.217718303203583 
650	 0.217955455183983 
651	 0.21818433701992 
652	 0.218411058187485 
653	 0.218636900186539 
654	 0.21886470913887 
655	 0.219102382659912 
656	 0.219304159283638 
657	 0.219498977065086 
658	 0.219766944646835 
659	 0.220006987452507 
660	 0.220316335558891 
661	 0.220705389976501 
662	 0.220969259738922 
663	 0.221205994486809 
664	 0.22149121761322 
665	 0.221861615777016 
666	 0.222230404615402 
667	 0.22247588634491 
668	 0.222682073712349 
669	 0.223063111305237 
670	 0.223444685339928 
671	 0.223751217126846 
672	 0.224001824855804 
673	 0.22435174882412 
674	 0.224647119641304 
675	 0.224917963147163 
676	 0.225214287638664 
677	 0.225457265973091 
678	 0.225566416978836 
679	 0.225621342658997 
680	 0.225781261920929 
681	 0.225886598229408 
682	 0.225942566990852 
683	 0.225990355014801 
684	 0.226090773940086 
685	 0.226270973682404 
686	 0.226514905691147 
687	 0.22678729891777 
688	 0.227035820484161 
689	 0.2273810505867 
690	 0.227722689509392 
691	 0.227892577648163 
692	 0.228157445788383 
693	 0.228482574224472 
694	 0.228804290294647 
695	 0.229065269231796 
696	 0.229364395141602 
697	 0.229775786399841 
698	 0.230287835001945 
699	 0.230706870555878 
700	 0.231017887592316 
701	 0.231354236602783 
702	 0.231848254799843 
703	 0.232241839170456 
704	 0.232624009251595 
705	 0.233001247048378 
706	 0.233301222324371 
707	 0.233691722154617 
708	 0.234059482812881 
709	 0.234347209334373 
710	 0.234684273600578 
711	 0.235066205263138 
712	 0.235432386398315 
713	 0.235730662941933 
714	 0.236020043492317 
715	 0.23630054295063 
716	 0.236574217677116 
717	 0.236852720379829 
718	 0.237223029136658 
719	 0.237527087330818 
720	 0.237731799483299 
721	 0.237988412380219 
722	 0.238299503922462 
723	 0.2386225014925 
724	 0.238901183009148 
725	 0.239066913723946 
726	 0.239296048879623 
727	 0.239581853151321 
728	 0.239848792552948 
729	 0.24009296298027 
730	 0.240296542644501 
731	 0.240463942289352 
732	 0.240620329976082 
733	 0.240807920694351 
734	 0.240999728441238 
735	 0.241187125444412 
736	 0.241403922438622 
737	 0.241653889417648 
738	 0.241860270500183 
739	 0.241966262459755 
740	 0.242016986012459 
741	 0.242120563983917 
742	 0.242283448576927 
743	 0.242452561855316 
744	 0.242552235722542 
745	 0.242672011256218 
746	 0.242819041013718 
747	 0.242925256490707 
748	 0.24300254881382 
749	 0.243029952049255 
750	 0.243057638406754 
751	 0.243243277072906 
752	 0.243388816714287 
753	 0.243481054902077 
754	 0.243551924824715 
755	 0.243611082434654 
756	 0.243695914745331 
757	 0.243805080652237 
758	 0.243907019495964 
759	 0.243922829627991 
760	 0.243936225771904 
761	 0.243976131081581 
762	 0.244024693965912 
763	 0.244129449129105 
764	 0.244134441018105 
765	 0.244044154882431 
766	 0.244090929627419 
767	 0.244109034538269 
768	 0.244124814867973 
769	 0.244160398840904 
770	 0.244129791855812 
771	 0.244188025593758 
772	 0.244228303432465 
773	 0.244130313396454 
774	 0.24406324326992 
775	 0.244093552231789 
776	 0.244131669402122 
777	 0.244046702980995 
778	 0.244053572416306 
779	 0.244024217128754 
780	 0.24392007291317 
781	 0.2438153475523 
782	 0.243778854608536 
783	 0.243748858571053 
784	 0.243716388940811 
785	 0.243779048323631 
786	 0.243697494268417 
787	 0.243560686707497 
788	 0.243482112884521 
789	 0.243442043662071 
790	 0.24333643913269 
791	 0.243198856711388 
792	 0.24310527741909 
793	 0.243087768554688 
794	 0.243065729737282 
795	 0.243022784590721 
796	 0.242971494793892 
797	 0.242856457829475 
798	 0.24275054037571 
799	 0.242686316370964 
800	 0.242641568183899 
801	 0.242485299706459 
802	 0.242347732186317 
803	 0.242283284664154 
804	 0.242211475968361 
805	 0.242070242762566 
806	 0.241929292678833 
807	 0.241853550076485 
808	 0.241851404309273 
809	 0.241729825735092 
810	 0.241582199931145 
811	 0.241511061787605 
812	 0.24142961204052 
813	 0.241325005888939 
814	 0.241191312670708 
815	 0.241060674190521 
816	 0.241095453500748 
817	 0.240986168384552 
818	 0.240802004933357 
819	 0.240745142102242 
820	 0.240604713559151 
821	 0.240448206663132 
822	 0.240339085459709 
823	 0.240301504731178 
824	 0.240192055702209 
825	 0.240088656544685 
826	 0.239988580346107 
827	 0.239809274673462 
828	 0.239659160375595 
829	 0.239570260047913 
830	 0.239499732851982 
831	 0.2393429428339 
832	 0.239285811781883 
833	 0.239263981580734 
834	 0.239190176129341 
835	 0.239025771617889 
836	 0.238912865519524 
837	 0.238811388611794 
838	 0.238687962293625 
839	 0.238614335656166 
840	 0.238602012395859 
841	 0.238575235009193 
842	 0.238471180200577 
843	 0.238330066204071 
844	 0.238177806138992 
845	 0.238070771098137 
846	 0.238032981753349 
847	 0.237970381975174 
848	 0.237841591238976 
849	 0.237719386816025 
850	 0.237672656774521 
851	 0.23755319416523 
852	 0.237419426441193 
853	 0.237339347600937 
854	 0.237348571419716 
855	 0.237337991595268 
856	 0.237322688102722 
857	 0.237262830138206 
858	 0.237113729119301 
859	 0.236965462565422 
860	 0.236906066536903 
861	 0.236893102526665 
862	 0.236817106604576 
863	 0.236736088991165 
864	 0.236634641885757 
865	 0.23655204474926 
866	 0.236550375819206 
867	 0.236546695232391 
868	 0.236567318439484 
869	 0.236556515097618 
870	 0.236418411135674 
871	 0.236309871077538 
872	 0.23628543317318 
873	 0.236299306154251 
874	 0.236252099275589 
875	 0.236299127340317 
876	 0.236204326152802 
877	 0.236045390367508 
878	 0.23616386950016 
879	 0.236210823059082 
880	 0.236123934388161 
881	 0.236005991697311 
882	 0.2360500395298 
883	 0.23611418902874 
884	 0.236126035451889 
885	 0.236093163490295 
886	 0.236087515950203 
887	 0.236071899533272 
888	 0.236137524247169 
889	 0.23620630800724 
890	 0.236081883311272 
891	 0.236141800880432 
892	 0.2361790984869 
893	 0.236168667674065 
894	 0.236290320754051 
895	 0.23631440103054 
896	 0.236331254243851 
897	 0.236360505223274 
898	 0.236333668231964 
899	 0.236292317509651 
900	 0.236286804080009 
901	 0.236317992210388 
902	 0.236352980136871 
903	 0.236452698707581 
904	 0.236563876271248 
905	 0.236626341938972 
906	 0.236603870987892 
907	 0.236561670899391 
908	 0.23646904528141 
909	 0.236442372202873 
910	 0.236616000533104 
911	 0.236637800931931 
912	 0.236739739775658 
913	 0.236849129199982 
914	 0.236791163682938 
915	 0.236943796277046 
916	 0.237109258770943 
917	 0.237182825803757 
918	 0.237163379788399 
919	 0.237175330519676 
920	 0.237127184867859 
921	 0.237135529518127 
922	 0.237307071685791 
923	 0.237399935722351 
924	 0.237479597330093 
925	 0.237595215439796 
926	 0.237730458378792 
927	 0.237702503800392 
928	 0.237791910767555 
929	 0.237912088632584 
930	 0.23796121776104 
931	 0.238052502274513 
932	 0.238167092204094 
933	 0.238243907690048 
934	 0.238279283046722 
935	 0.238372534513474 
936	 0.238463908433914 
937	 0.238553673028946 
938	 0.238640978932381 
939	 0.238719001412392 
940	 0.238887816667557 
941	 0.23898346722126 
942	 0.239000245928764 
943	 0.23908756673336 
944	 0.239154174923897 
945	 0.239175021648407 
946	 0.239228785037994 
947	 0.239387407898903 
948	 0.239377081394196 
949	 0.239396870136261 
950	 0.239528745412827 
951	 0.239711448550224 
952	 0.239665493369102 
953	 0.239689350128174 
954	 0.239702790975571 
955	 0.239618375897408 
956	 0.239630103111267 
957	 0.239720359444618 
958	 0.239753931760788 
959	 0.239688023924828 
960	 0.239664688706398 
961	 0.239779144525528 
962	 0.239950507879257 
963	 0.240059360861778 
964	 0.240045994520187 
965	 0.240214094519615 
966	 0.240411922335625 
967	 0.240565121173859 
968	 0.240704104304314 
969	 0.2409398406744 
970	 0.241091996431351 
971	 0.241181448101997 
972	 0.241295203566551 
973	 0.241441458463669 
974	 0.241559118032455 
975	 0.241606950759888 
976	 0.241653889417648 
977	 0.241883680224419 
978	 0.242052182555199 
979	 0.242229461669922 
980	 0.242405593395233 
981	 0.242497652769089 
982	 0.242726996541023 
983	 0.242816597223282 
984	 0.242784410715103 
985	 0.242771327495575 
986	 0.24265843629837 
987	 0.242671683430672 
988	 0.242815002799034 
989	 0.242981523275375 
990	 0.243038356304169 
991	 0.243166953325272 
992	 0.243230909109116 
993	 0.243207648396492 
994	 0.243244662880898 
995	 0.243438512086868 
996	 0.243518337607384 
997	 0.243478193879128 
998	 0.243466541171074 
999	 0.243550807237625 
1000	 0.243503823876381 
1001	 0.235419794917107 
1002	 0.235465213656425 
1003	 0.23556424677372 
1004	 0.235555484890938 
1005	 0.235492527484894 
1006	 0.235437825322151 
1007	 0.235375866293907 
1008	 0.235413685441017 
1009	 0.235441535711288 
1010	 0.235500425100327 
1011	 0.235522970557213 
1012	 0.235563561320305 
1013	 0.235568523406982 
1014	 0.235545784235001 
1015	 0.23549810051918 
1016	 0.235437273979187 
1017	 0.235360220074654 
1018	 0.235221341252327 
1019	 0.235164910554886 
1020	 0.235222473740578 
1021	 0.235259294509888 
1022	 0.235336914658546 
1023	 0.235493212938309 
1024	 0.235545590519905 
1025	 0.235544517636299 
1026	 0.235527604818344 
1027	 0.235420241951942 
1028	 0.235374391078949 
1029	 0.235302314162254 
1030	 0.235329881310463 
1031	 0.235357239842415 
1032	 0.235420972108841 
1033	 0.235478356480598 
1034	 0.235456377267838 
1035	 0.235425293445587 
1036	 0.235363736748695 
1037	 0.235276624560356 
1038	 0.23516970872879 
1039	 0.235107690095901 
1040	 0.235104069113731 
1041	 0.235042616724968 
1042	 0.234956547617912 
1043	 0.234912112355232 
1044	 0.234852895140648 
1045	 0.234801143407822 
1046	 0.234836161136627 
1047	 0.234818071126938 
1048	 0.234754130244255 
1049	 0.234652623534203 
1050	 0.234539598226547 
1051	 0.234447747468948 
1052	 0.23435814678669 
1053	 0.234281450510025 
1054	 0.234165281057358 
1055	 0.233982309699059 
1056	 0.233866974711418 
1057	 0.233779057860374 
1058	 0.233653753995895 
1059	 0.233553841710091 
1060	 0.233467772603035 
1061	 0.233324870467186 
1062	 0.2332414239645 
1063	 0.233266472816467 
1064	 0.23322805762291 
1065	 0.233151778578758 
1066	 0.233120664954185 
1067	 0.232999265193939 
1068	 0.23294360935688 
1069	 0.232903391122818 
1070	 0.232932716608047 
1071	 0.232870772480965 
1072	 0.232797548174858 
1073	 0.232662990689278 
1074	 0.232532635331154 
1075	 0.232444196939468 
1076	 0.23235622048378 
1077	 0.232305988669395 
1078	 0.232268705964088 
1079	 0.232207626104355 
1080	 0.232108056545258 
1081	 0.232010275125504 
1082	 0.231981173157692 
1083	 0.231929987668991 
1084	 0.231875956058502 
1085	 0.231923952698708 
1086	 0.231922969222069 
1087	 0.231873661279678 
1088	 0.231840997934341 
1089	 0.231870695948601 
1090	 0.231791377067566 
1091	 0.231693848967552 
1092	 0.231649830937386 
1093	 0.231630071997643 
1094	 0.231616869568825 
1095	 0.231626644730568 
1096	 0.231591135263443 
1097	 0.231481701135635 
1098	 0.231429189443588 
1099	 0.231413453817368 
1100	 0.231376811861992 
1101	 0.23134683072567 
1102	 0.231349810957909 
1103	 0.2312952876091 
1104	 0.231209695339203 
1105	 0.231179997324944 
1106	 0.231147721409798 
1107	 0.231116235256195 
1108	 0.231088370084763 
1109	 0.231034904718399 
1110	 0.230954468250275 
1111	 0.230907797813416 
1112	 0.230926275253296 
1113	 0.230932876467705 
1114	 0.230883315205574 
1115	 0.230830013751984 
1116	 0.230752527713776 
1117	 0.230685174465179 
1118	 0.230596795678139 
1119	 0.230604574084282 
1120	 0.230561822652817 
1121	 0.230481013655663 
1122	 0.230459570884705 
1123	 0.230346322059631 
1124	 0.230238527059555 
1125	 0.230170845985413 
1126	 0.230041742324829 
1127	 0.229967966675758 
1128	 0.229911535978317 
1129	 0.229848712682724 
1130	 0.229796528816223 
1131	 0.229700207710266 
1132	 0.229616940021515 
1133	 0.229549542069435 
1134	 0.22944450378418 
1135	 0.22930583357811 
1136	 0.229190394282341 
1137	 0.229104191064835 
1138	 0.228993847966194 
1139	 0.228923767805099 
1140	 0.228843957185745 
1141	 0.228731781244278 
1142	 0.228611260652542 
1143	 0.228479787707329 
1144	 0.228401362895966 
1145	 0.228334844112396 
1146	 0.228270322084427 
1147	 0.228230759501457 
1148	 0.228173136711121 
1149	 0.228088587522507 
1150	 0.227972343564034 
1151	 0.227865025401115 
1152	 0.227743208408356 
1153	 0.227617487311363 
1154	 0.227510541677475 
1155	 0.227444037795067 
1156	 0.227377369999886 
1157	 0.227310925722122 
1158	 0.227262929081917 
1159	 0.227204158902168 
1160	 0.227172836661339 
1161	 0.227152317762375 
1162	 0.227099910378456 
1163	 0.227051138877869 
1164	 0.227002859115601 
1165	 0.226932272315025 
1166	 0.226876750588417 
1167	 0.226847484707832 
1168	 0.226799994707108 
1169	 0.226729080080986 
1170	 0.226699247956276 
1171	 0.226676180958748 
1172	 0.226634413003922 
1173	 0.226605966687202 
1174	 0.226542696356773 
1175	 0.226499512791634 
1176	 0.226496160030365 
1177	 0.226483955979347 
1178	 0.226457566022873 
1179	 0.226403892040253 
1180	 0.226316556334496 
1181	 0.226220890879631 
1182	 0.226172581315041 
1183	 0.226122140884399 
1184	 0.226081356406212 
1185	 0.2260352820158 
1186	 0.22600981593132 
1187	 0.225961536169052 
1188	 0.225904628634453 
1189	 0.225827679038048 
1190	 0.225777760148048 
1191	 0.225738927721977 
1192	 0.225685641169548 
1193	 0.225657731294632 
1194	 0.225625827908516 
1195	 0.225540354847908 
1196	 0.225447356700897 
1197	 0.225400373339653 
1198	 0.225360259413719 
1199	 0.225286483764648 
1200	 0.225216522812843 
1201	 0.225176945328712 
1202	 0.225126087665558 
1203	 0.225058823823929 
1204	 0.22500841319561 
1205	 0.224972382187843 
1206	 0.224929705262184 
1207	 0.224884226918221 
1208	 0.224854990839958 
1209	 0.224816158413887 
1210	 0.224744200706482 
1211	 0.224632933735847 
1212	 0.224532350897789 
1213	 0.224443897604942 
1214	 0.224379435181618 
1215	 0.22435237467289 
1216	 0.224291324615479 
1217	 0.224190697073936 
1218	 0.224075525999069 
1219	 0.223998367786407 
1220	 0.223922029137611 
1221	 0.223863869905472 
1222	 0.223870262503624 
1223	 0.223817229270935 
1224	 0.223722919821739 
1225	 0.223630353808403 
1226	 0.223517835140228 
1227	 0.223420411348343 
1228	 0.223318830132484 
1229	 0.223263874650002 
1230	 0.223235011100769 
1231	 0.223156526684761 
1232	 0.223076745867729 
1233	 0.223008498549461 
1234	 0.222911790013313 
1235	 0.222822785377502 
1236	 0.222745552659035 
1237	 0.222657650709152 
1238	 0.222575843334198 
1239	 0.222514748573303 
1240	 0.222423493862152 
1241	 0.222301244735718 
1242	 0.222209990024567 
1243	 0.222116604447365 
1244	 0.222029343247414 
1245	 0.221979722380638 
1246	 0.221889525651932 
1247	 0.22177392244339 
1248	 0.221662953495979 
1249	 0.221543863415718 
1250	 0.221470460295677 
1251	 0.221428766846657 
1252	 0.22136589884758 
1253	 0.221265479922295 
1254	 0.221185758709908 
1255	 0.221122950315475 
1256	 0.221038728952408 
1257	 0.221005961298943 
1258	 0.220979571342468 
1259	 0.220927760004997 
1260	 0.220868080854416 
1261	 0.220804437994957 
1262	 0.220710918307304 
1263	 0.220640450716019 
1264	 0.220580235123634 
1265	 0.220514342188835 
1266	 0.220457687973976 
1267	 0.220399603247643 
1268	 0.220337599515915 
1269	 0.22026501595974 
1270	 0.220178708434105 
1271	 0.220116645097733 
1272	 0.220053091645241 
1273	 0.220009803771973 
1274	 0.219964355230331 
1275	 0.219901010394096 
1276	 0.21983876824379 
1277	 0.219758734107018 
1278	 0.219665616750717 
1279	 0.219582334160805 
1280	 0.219490796327591 
1281	 0.219365745782852 
1282	 0.219278782606125 
1283	 0.219232574105263 
1284	 0.21914379298687 
1285	 0.219076082110405 
1286	 0.218947112560272 
1287	 0.218733891844749 
1288	 0.218580216169357 
1289	 0.218402951955795 
1290	 0.218260943889618 
1291	 0.218165218830109 
1292	 0.218082919716835 
1293	 0.217951193451881 
1294	 0.217822372913361 
1295	 0.217711195349693 
1296	 0.217598602175713 
1297	 0.217475160956383 
1298	 0.217388853430748 
1299	 0.217260360717773 
1300	 0.217048570513725 
1301	 0.216922372579575 
1302	 0.21684792637825 
1303	 0.216758742928505 
1304	 0.216742068529129 
1305	 0.21664559841156 
1306	 0.216469392180443 
1307	 0.216361224651337 
1308	 0.21623882651329 
1309	 0.216169118881226 
1310	 0.216191545128822 
1311	 0.216148540377617 
1312	 0.216088563203812 
1313	 0.216039136052132 
1314	 0.215947732329369 
1315	 0.215899646282196 
1316	 0.215879410505295 
1317	 0.215884074568748 
1318	 0.215881288051605 
1319	 0.215883001685143 
1320	 0.215859442949295 
1321	 0.215796113014221 
1322	 0.215741813182831 
1323	 0.215720668435097 
1324	 0.215707451105118 
1325	 0.215672269463539 
1326	 0.21563795208931 
1327	 0.215578779578209 
1328	 0.21556268632412 
1329	 0.215578407049179 
1330	 0.21556556224823 
1331	 0.215572401881218 
1332	 0.215537071228027 
1333	 0.215427696704865 
1334	 0.215408027172089 
1335	 0.215454116463661 
1336	 0.215437278151512 
1337	 0.215445548295975 
1338	 0.21540404856205 
1339	 0.215265840291977 
1340	 0.215191692113876 
1341	 0.21513669192791 
1342	 0.215095564723015 
1343	 0.215077266097069 
1344	 0.215020790696144 
1345	 0.214919537305832 
1346	 0.214845165610313 
1347	 0.214768469333649 
1348	 0.214688360691071 
1349	 0.214634388685226 
1350	 0.214560255408287 
1351	 0.214479237794876 
1352	 0.214380115270615 
1353	 0.214296266436577 
1354	 0.214223846793175 
1355	 0.214131787419319 
1356	 0.214030876755714 
1357	 0.213932603597641 
1358	 0.213822618126869 
1359	 0.213714107871056 
1360	 0.213609486818314 
1361	 0.213505327701569 
1362	 0.213419020175934 
1363	 0.213288500905037 
1364	 0.213120013475418 
1365	 0.21298860013485 
1366	 0.21285754442215 
1367	 0.212709978222847 
1368	 0.212576940655708 
1369	 0.212450996041298 
1370	 0.21227140724659 
1371	 0.212083727121353 
1372	 0.21192754805088 
1373	 0.211763754487038 
1374	 0.211613446474075 
1375	 0.211448088288307 
1376	 0.211272448301315 
1377	 0.21111749112606 
1378	 0.210946083068848 
1379	 0.210772946476936 
1380	 0.210597306489944 
1381	 0.210439831018448 
1382	 0.210214361548424 
1383	 0.210004642605782 
1384	 0.209671452641487 
1385	 0.209305018186569 
1386	 0.20879453420639 
1387	 0.208209916949272 
1388	 0.207480266690254 
1389	 0.206644728779793 
1390	 0.205664783716202 
1391	 0.20458035171032 
1392	 0.203316733241081 
1393	 0.20185798406601 
1394	 0.200330972671509 
1395	 0.198626458644867 
1396	 0.196885481476784 
1397	 0.194996014237404 
1398	 0.193175569176674 
1399	 0.191272094845772 
1400	 0.189455807209015 
1401	 0.187776878476143 
1402	 0.186190068721771 
1403	 0.184699207544327 
1404	 0.183335408568382 
1405	 0.182068809866905 
1406	 0.180905342102051 
1407	 0.179928317666054 
1408	 0.179113328456879 
1409	 0.178429886698723 
1410	 0.177905023097992 
1411	 0.177629500627518 
1412	 0.177482098340988 
1413	 0.177695706486702 
1414	 0.178171068429947 
1415	 0.178935527801514 
1416	 0.180040970444679 
1417	 0.181285873055458 
1418	 0.182873457670212 
1419	 0.184420719742775 
1420	 0.186168983578682 
1421	 0.187823325395584 
1422	 0.189589470624924 
1423	 0.191164299845695 
1424	 0.192710012197495 
1425	 0.194112211465836 
1426	 0.195386409759521 
1427	 0.196534842252731 
1428	 0.197550892829895 
1429	 0.198496028780937 
1430	 0.199310541152954 
1431	 0.2000652551651 
1432	 0.200752422213554 
1433	 0.201367780566216 
1434	 0.201894521713257 
1435	 0.202339217066765 
1436	 0.202752470970154 
1437	 0.203128308057785 
1438	 0.203452914953232 
1439	 0.203731462359428 
1440	 0.20393742620945 
1441	 0.204086109995842 
1442	 0.204242900013924 
1443	 0.204379394650459 
1444	 0.204479187726974 
1445	 0.20458397269249 
1446	 0.204653769731522 
1447	 0.204657316207886 
1448	 0.204698696732521 
1449	 0.204761505126953 
1450	 0.20478093624115 
1451	 0.20478580892086 
1452	 0.20477519929409 
1453	 0.204733088612556 
1454	 0.204700276255608 
1455	 0.204657137393951 
1456	 0.204616263508797 
1457	 0.204574003815651 
1458	 0.20452906191349 
1459	 0.204482689499855 
1460	 0.204436659812927 
1461	 0.204374372959137 
1462	 0.20434096455574 
1463	 0.20433583855629 
1464	 0.204302325844765 
1465	 0.204278409481049 
1466	 0.204241409897804 
1467	 0.204160198569298 
1468	 0.204116225242615 
1469	 0.204097256064415 
1470	 0.204066783189774 
1471	 0.204055607318878 
1472	 0.20402318239212 
1473	 0.203959450125694 
1474	 0.203917279839516 
1475	 0.203877404332161 
1476	 0.203850165009499 
1477	 0.203787684440613 
1478	 0.203758463263512 
1479	 0.203723579645157 
1480	 0.203658908605576 
1481	 0.203648895025253 
1482	 0.203641086816788 
1483	 0.203616246581078 
1484	 0.203608751296997 
1485	 0.203569144010544 
1486	 0.20351243019104 
1487	 0.203483447432518 
1488	 0.203432127833366 
1489	 0.203374072909355 
1490	 0.203362464904785 
1491	 0.203329220414162 
1492	 0.203288570046425 
1493	 0.20324544608593 
1494	 0.203210338950157 
1495	 0.20314733684063 
1496	 0.203061729669571 
1497	 0.202993452548981 
1498	 0.20291842520237 
1499	 0.202863156795502 
1500	 0.202822104096413 
1501	 0.202771782875061 
1502	 0.202733725309372 
1503	 0.202673599123955 
1504	 0.20258092880249 
1505	 0.202539756894112 
1506	 0.202528148889542 
1507	 0.202477395534515 
1508	 0.202450782060623 
1509	 0.202392160892487 
1510	 0.202262222766876 
1511	 0.202197030186653 
1512	 0.202166050672531 
1513	 0.202118515968323 
1514	 0.202083557844162 
1515	 0.202050030231476 
1516	 0.202015802264214 
1517	 0.201977849006653 
1518	 0.201949372887611 
1519	 0.20190617442131 
1520	 0.20184001326561 
1521	 0.201797112822533 
1522	 0.201759397983551 
1523	 0.201726675033569 
1524	 0.201728031039238 
1525	 0.201689764857292 
1526	 0.201618656516075 
1527	 0.201570898294449 
1528	 0.20151025056839 
1529	 0.201457113027573 
1530	 0.201421767473221 
1531	 0.201394364237785 
1532	 0.20133663713932 
1533	 0.201274961233139 
1534	 0.201234236359596 
1535	 0.201169028878212 
1536	 0.20110784471035 
1537	 0.201082989573479 
1538	 0.201027452945709 
1539	 0.20095719397068 
1540	 0.200892224907875 
1541	 0.200812935829163 
1542	 0.200752586126328 
1543	 0.200733348727226 
1544	 0.200725361704826 
1545	 0.200676262378693 
1546	 0.20059759914875 
1547	 0.200520291924477 
1548	 0.200448423624039 
1549	 0.200433224439621 
1550	 0.200429320335388 
1551	 0.200375929474831 
1552	 0.200328499078751 
1553	 0.200244322419167 
1554	 0.200166210532188 
1555	 0.200162291526794 
1556	 0.200151368975639 
1557	 0.200124368071556 
1558	 0.200080752372742 
1559	 0.200034990906715 
1560	 0.19999136030674 
1561	 0.199943870306015 
1562	 0.199922695755959 
1563	 0.19987565279007 
1564	 0.199808716773987 
1565	 0.19974510371685 
1566	 0.199652805924416 
1567	 0.199575781822205 
1568	 0.199517801403999 
1569	 0.199474170804024 
1570	 0.199424266815186 
1571	 0.199387520551682 
1572	 0.199340328574181 
1573	 0.199288949370384 
1574	 0.199240446090698 
1575	 0.199193447828293 
1576	 0.199149116873741 
1577	 0.199099868535995 
1578	 0.199047714471817 
1579	 0.199003398418427 
1580	 0.198953047394753 
1581	 0.198890447616577 
1582	 0.198843598365784 
1583	 0.198816806077957 
1584	 0.19875805079937 
1585	 0.198675945401192 
1586	 0.198625415563583 
1587	 0.198565185070038 
1588	 0.198528379201889 
1589	 0.198543190956116 
1590	 0.198507457971573 
1591	 0.198438718914986 
1592	 0.198388785123825 
1593	 0.19833579659462 
1594	 0.198292583227158 
1595	 0.19828000664711 
1596	 0.198217943310738 
1597	 0.198109969496727 
1598	 0.19805121421814 
1599	 0.197992146015167 
1600	 0.197927117347717 
1601	 0.19789531826973 
1602	 0.197846725583076 
1603	 0.197762474417686 
1604	 0.197719350457191 
1605	 0.197711527347565 
1606	 0.197679400444031 
1607	 0.197664484381676 
1608	 0.19761098921299 
1609	 0.19750539958477 
1610	 0.197453960776329 
1611	 0.197400525212288 
1612	 0.197364211082458 
1613	 0.197402879595757 
1614	 0.197362959384918 
1615	 0.197256743907928 
1616	 0.197217836976051 
1617	 0.197185650467873 
1618	 0.197144791483879 
1619	 0.197150185704231 
1620	 0.1971126049757 
1621	 0.197010532021523 
1622	 0.196967512369156 
1623	 0.196973666548729 
1624	 0.196932390332222 
1625	 0.196875631809235 
1626	 0.196835204958916 
1627	 0.196776837110519 
1628	 0.196722105145454 
1629	 0.196708545088768 
1630	 0.196652948856354 
1631	 0.196539551019669 
1632	 0.196476116776466 
1633	 0.196435078978539 
1634	 0.196377739310265 
1635	 0.19632576406002 
1636	 0.196278035640717 
1637	 0.196208775043488 
1638	 0.196159347891808 
1639	 0.196159839630127 
1640	 0.196130082011223 
1641	 0.196072548627853 
1642	 0.196034848690033 
1643	 0.195992827415466 
1644	 0.195944547653198 
1645	 0.195931881666183 
1646	 0.195872709155083 
1647	 0.195760115981102 
1648	 0.195707082748413 
1649	 0.195643439888954 
1650	 0.195597931742668 
1651	 0.195623084902763 
1652	 0.19557785987854 
1653	 0.195502683520317 
1654	 0.195440754294395 
1655	 0.195332556962967 
1656	 0.195283502340317 
1657	 0.19528417289257 
1658	 0.195245817303658 
1659	 0.195207849144936 
1660	 0.195177018642426 
1661	 0.195125624537468 
1662	 0.195077180862427 
1663	 0.195063859224319 
1664	 0.195029184222221 
1665	 0.194962069392204 
1666	 0.194910198450089 
1667	 0.194842770695686 
1668	 0.194755285978317 
1669	 0.194705337285995 
1670	 0.194674924015999 
1671	 0.194630995392799 
1672	 0.194589853286743 
1673	 0.194574266672134 
1674	 0.19452440738678 
1675	 0.194474115967751 
1676	 0.194448068737984 
1677	 0.194368734955788 
1678	 0.194310054183006 
1679	 0.194284453988075 
1680	 0.194232508540154 
1681	 0.194220080971718 
1682	 0.194218337535858 
1683	 0.194180995225906 
1684	 0.194158032536507 
1685	 0.19409142434597 
1686	 0.19401989877224 
1687	 0.194007843732834 
1688	 0.193964526057243 
1689	 0.193953275680542 
1690	 0.193952068686485 
1691	 0.193888008594513 
1692	 0.193832010030746 
1693	 0.19376964867115 
1694	 0.193711653351784 
1695	 0.193656906485558 
1696	 0.193623527884483 
1697	 0.193615466356277 
1698	 0.193565607070923 
1699	 0.193530395627022 
1700	 0.193503618240356 
1701	 0.193445935845375 
1702	 0.193408414721489 
1703	 0.193362385034561 
1704	 0.193295061588287 
1705	 0.193261846899986 
1706	 0.193256914615631 
1707	 0.193254724144936 
1708	 0.19324953854084 
1709	 0.193234875798225 
1710	 0.19318488240242 
1711	 0.193103671073914 
1712	 0.193059593439102 
1713	 0.193012699484825 
1714	 0.192950800061226 
1715	 0.192960605025291 
1716	 0.192947924137115 
1717	 0.192885994911194 
1718	 0.192856058478355 
1719	 0.192785546183586 
1720	 0.192701697349548 
1721	 0.192670866847038 
1722	 0.192640572786331 
1723	 0.192657738924026 
1724	 0.192674607038498 
1725	 0.192596271634102 
1726	 0.192485064268112 
1727	 0.192393630743027 
1728	 0.192305520176888 
1729	 0.192248985171318 
1730	 0.192224934697151 
1731	 0.192158639431 
1732	 0.192049905657768 
1733	 0.191973224282265 
1734	 0.19189091026783 
1735	 0.19182987511158 
1736	 0.191813185811043 
1737	 0.191751018166542 
1738	 0.191714882850647 
1739	 0.191684007644653 
1740	 0.191620647907257 
1741	 0.191553249955177 
1742	 0.191461369395256 
1743	 0.191367909312248 
1744	 0.191316664218903 
1745	 0.191280633211136 
1746	 0.191264018416405 
1747	 0.191248029470444 
1748	 0.191209763288498 
1749	 0.191161543130875 
1750	 0.19108821451664 
1751	 0.19102868437767 
1752	 0.190974667668343 
1753	 0.190874606370926 
1754	 0.190770953893661 
1755	 0.190692022442818 
1756	 0.190608248114586 
1757	 0.190545305609703 
1758	 0.190528586506844 
1759	 0.190481290221214 
1760	 0.190421059727669 
1761	 0.190365940332413 
1762	 0.190310716629028 
1763	 0.190267354249954 
1764	 0.190235018730164 
1765	 0.190246880054474 
1766	 0.190225794911385 
1767	 0.190205231308937 
1768	 0.190167531371117 
1769	 0.190072730183601 
1770	 0.190031707286835 
1771	 0.189986810088158 
1772	 0.189925447106361 
1773	 0.189866989850998 
1774	 0.189804553985596 
1775	 0.189761385321617 
1776	 0.189703315496445 
1777	 0.189690798521042 
1778	 0.189627096056938 
1779	 0.189595684409142 
1780	 0.189585670828819 
1781	 0.189593225717545 
1782	 0.189571037888527 
1783	 0.189495578408241 
1784	 0.189452230930328 
1785	 0.189369261264801 
1786	 0.189282640814781 
1787	 0.189271986484528 
1788	 0.189231172204018 
1789	 0.189182296395302 
1790	 0.189189568161964 
1791	 0.189187437295914 
1792	 0.189169570803642 
1793	 0.189157098531723 
1794	 0.189134165644646 
1795	 0.189112678170204 
1796	 0.189107432961464 
1797	 0.189091235399246 
1798	 0.18906956911087 
1799	 0.189065501093864 
1800	 0.189047902822495 
1801	 0.189010888338089 
1802	 0.188949257135391 
1803	 0.188884973526001 
1804	 0.188827991485596 
1805	 0.188799560070038 
1806	 0.188769921660423 
1807	 0.188698396086693 
1808	 0.188636884093285 
1809	 0.188556581735611 
1810	 0.188543766736984 
1811	 0.188589811325073 
1812	 0.18856343626976 
1813	 0.18855519592762 
1814	 0.188506513834 
1815	 0.188452854752541 
1816	 0.188452661037445 
1817	 0.188408672809601 
1818	 0.188323602080345 
1819	 0.188278824090958 
1820	 0.188242331147194 
1821	 0.188208937644958 
1822	 0.188217610120773 
1823	 0.188209936022758 
1824	 0.188197568058968 
1825	 0.188218489289284 
1826	 0.188202172517776 
1827	 0.188178017735481 
1828	 0.18815416097641 
1829	 0.188106909394264 
1830	 0.188050359487534 
1831	 0.193170294165611 
1832	 0.193203374743462 
1833	 0.193182840943336 
1834	 0.193116724491119 
1835	 0.193100184202194 
1836	 0.193075954914093 
1837	 0.19302761554718 
1838	 0.192965924739838 
1839	 0.193017885088921 
1840	 0.192951142787933 
1841	 0.192812785506248 
1842	 0.192738354206085 
1843	 0.192645207047462 
1844	 0.192540898919106 
1845	 0.192415878176689 
1846	 0.192377358675003 
1847	 0.192392796278 
1848	 0.192318350076675 
1849	 0.192320361733437 
1850	 0.192324116826057 
1851	 0.192266702651978 
1852	 0.192219391465187 
1853	 0.192166775465012 
1854	 0.192139133810997 
1855	 0.192113429307938 
1856	 0.192112103104591 
1857	 0.192045867443085 
1858	 0.191962271928787 
1859	 0.19188380241394 
1860	 0.191718742251396 
1861	 0.191601753234863 
1862	 0.191585391759872 
1863	 0.191541478037834 
1864	 0.191507875919342 
1865	 0.19151072204113 
1866	 0.191471889615059 
1867	 0.191410690546036 
1868	 0.191313207149506 
1869	 0.191222608089447 
1870	 0.191102400422096 
1871	 0.190940469503403 
1872	 0.190831661224365 
1873	 0.19077131152153 
1874	 0.19067545235157 
1875	 0.190532729029655 
1876	 0.190408378839493 
1877	 0.190246388316154 
1878	 0.190045461058617 
1879	 0.189784914255142 
1880	 0.189512774348259 
1881	 0.189199417829514 
1882	 0.188886016607285 
1883	 0.18855457007885 
1884	 0.188268542289734 
1885	 0.18804195523262 
1886	 0.187658280134201 
1887	 0.187292233109474 
1888	 0.186942383646965 
1889	 0.186610341072083 
1890	 0.186156794428825 
1891	 0.185801222920418 
1892	 0.185413792729378 
1893	 0.184929072856903 
1894	 0.184439718723297 
1895	 0.183881968259811 
1896	 0.18336196243763 
1897	 0.182874172925949 
1898	 0.182380110025406 
1899	 0.181842908263206 
1900	 0.18128564953804 
1901	 0.180688768625259 
1902	 0.180162593722343 
1903	 0.179645761847496 
1904	 0.17922942340374 
1905	 0.178928732872009 
1906	 0.178598240017891 
1907	 0.178342059254646 
1908	 0.178149312734604 
1909	 0.177973598241806 
1910	 0.177842393517494 
1911	 0.17775097489357 
1912	 0.177682936191559 
1913	 0.177674293518066 
1914	 0.177635580301285 
1915	 0.177603513002396 
1916	 0.177621424198151 
1917	 0.177611038088799 
1918	 0.177700594067574 
1919	 0.177895322442055 
1920	 0.178037047386169 
1921	 0.178139194846153 
1922	 0.178207099437714 
1923	 0.178230330348015 
1924	 0.178180232644081 
1925	 0.178190886974335 
1926	 0.178257077932358 
1927	 0.178333789110184 
1928	 0.178400367498398 
1929	 0.178446158766747 
1930	 0.178470775485039 
1931	 0.178445175290108 
1932	 0.178464516997337 
1933	 0.178524419665337 
1934	 0.178607627749443 
1935	 0.17868073284626 
1936	 0.178816795349121 
1937	 0.178935065865517 
1938	 0.178963258862495 
1939	 0.178948059678078 
1940	 0.178928226232529 
1941	 0.178922072052956 
1942	 0.178909242153168 
1943	 0.178915858268738 
1944	 0.17891488969326 
1945	 0.17890889942646 
1946	 0.17890864610672 
1947	 0.178913399577141 
1948	 0.17889030277729 
1949	 0.178921326994896 
1950	 0.178957834839821 
1951	 0.178964599967003 
1952	 0.179058119654655 
1953	 0.179086476564407 
1954	 0.179050475358963 
1955	 0.179065838456154 
1956	 0.179087266325951 
1957	 0.179119318723679 
1958	 0.179214671254158 
1959	 0.179244995117188 
1960	 0.179247304797173 
1961	 0.179248139262199 
1962	 0.179182931780815 
1963	 0.179202556610107 
1964	 0.179332241415977 
1965	 0.179364413022995 
1966	 0.179417699575424 
1967	 0.179483249783516 
1968	 0.17951637506485 
1969	 0.179467216134071 
1970	 0.179523944854736 
1971	 0.17965629696846 
1972	 0.179712206125259 
1973	 0.179773032665253 
1974	 0.179806113243103 
1975	 0.179809495806694 
1976	 0.179843112826347 
1977	 0.179874166846275 
1978	 0.179885804653168 
1979	 0.179926052689552 
1980	 0.179997771978378 
1981	 0.180090621113777 
1982	 0.180299922823906 
1983	 0.180379599332809 
1984	 0.180363938212395 
1985	 0.180423378944397 
1986	 0.18046361207962 
1987	 0.18051965534687 
1988	 0.180626899003983 
1989	 0.180701285600662 
1990	 0.180748492479324 
1991	 0.180819496512413 
1992	 0.180901020765305 
1993	 0.18098159134388 
1994	 0.181022018194199 
1995	 0.180992960929871 
1996	 0.181015834212303 
1997	 0.181024476885796 
1998	 0.181080535054207 
1999	 0.181166157126427 
2000	 0.181295797228813 
2001	 0.181451141834259 
2002	 0.181507363915443 
2003	 0.181577786803246 
2004	 0.18169666826725 
2005	 0.181789100170135 
2006	 0.181920289993286 
2007	 0.182026579976082 
2008	 0.182145282626152 
2009	 0.182235464453697 
2010	 0.18228043615818 
2011	 0.182366028428078 
2012	 0.182493358850479 
2013	 0.182556167244911 
2014	 0.182605281472206 
2015	 0.182702735066414 
2016	 0.182757258415222 
2017	 0.182779669761658 
2018	 0.182903930544853 
2019	 0.183023706078529 
2020	 0.18306639790535 
2021	 0.183048069477081 
2022	 0.183143720030785 
2023	 0.183226928114891 
2024	 0.183298349380493 
2025	 0.183512523770332 
2026	 0.183593317866325 
2027	 0.183539196848869 
2028	 0.183525368571281 
2029	 0.183588251471519 
2030	 0.183650106191635 
2031	 0.183762162923813 
2032	 0.18387895822525 
2033	 0.183955162763596 
2034	 0.184048444032669 
2035	 0.184110850095749 
2036	 0.184132859110832 
2037	 0.18419349193573 
2038	 0.184270545840263 
2039	 0.184328973293304 
2040	 0.184401795268059 
2041	 0.184462323784828 
2042	 0.18449991941452 
2043	 0.184532433748245 
2044	 0.18459315598011 
2045	 0.18464070558548 
2046	 0.184697464108467 
2047	 0.184758260846138 
2048	 0.184788540005684 
2049	 0.184800341725349 
2050	 0.184816017746925 
2051	 0.184818267822266 
2052	 0.184794738888741 
2053	 0.184704825282097 
2054	 0.184709668159485 
2055	 0.184778779745102 
2056	 0.184803366661072 
2057	 0.184819594025612 
2058	 0.184913083910942 
2059	 0.184998080134392 
2060	 0.184997394680977 
2061	 0.185105457901955 
2062	 0.185237944126129 
2063	 0.185258969664574 
2064	 0.185326263308525 
2065	 0.185334160923958 
2066	 0.185269430279732 
2067	 0.185233905911446 
2068	 0.185159876942635 
2069	 0.185149997472763 
2070	 0.185225769877434 
2071	 0.185219809412956 
2072	 0.185225054621696 
2073	 0.185157597064972 
2074	 0.185067161917686 
2075	 0.18501815199852 
2076	 0.18510302901268 
2077	 0.185206741094589 
2078	 0.185204297304153 
2079	 0.185172021389008 
2080	 0.185103431344032 
2081	 0.184885650873184 
2082	 0.184828504920006 
2083	 0.184880658984184 
2084	 0.184793144464493 
2085	 0.184683486819267 
2086	 0.184596121311188 
2087	 0.18443863093853 
2088	 0.184304162859917 
2089	 0.184238493442535 
2090	 0.184122428297997 
2091	 0.183903783559799 
2092	 0.183761835098267 
2093	 0.183654606342316 
2094	 0.183538794517517 
2095	 0.183430537581444 
2096	 0.183249473571777 
2097	 0.183132261037827 
2098	 0.183075681328773 
2099	 0.182908624410629 
2100	 0.18267810344696 
2101	 0.182515785098076 
2102	 0.182314217090607 
2103	 0.182133495807648 
2104	 0.182011768221855 
2105	 0.181902468204498 
2106	 0.181837871670723 
2107	 0.181613475084305 
2108	 0.181497693061829 
2109	 0.181496068835258 
2110	 0.181378439068794 
2111	 0.181319206953049 
2112	 0.181309878826141 
2113	 0.181183025240898 
2114	 0.181131139397621 
2115	 0.181138038635254 
2116	 0.181113675236702 
2117	 0.181083083152771 
2118	 0.181052759289742 
2119	 0.180974066257477 
2120	 0.18097148835659 
2121	 0.181029215455055 
2122	 0.181078091263771 
2123	 0.181223571300507 
2124	 0.181254774332047 
2125	 0.181224271655083 
2126	 0.181128978729248 
2127	 0.181056544184685 
2128	 0.181087955832481 
2129	 0.181141152977943 
2130	 0.181165903806686 
2131	 0.181172803044319 
2132	 0.181218102574348 
2133	 0.181256368756294 
2134	 0.181317791342735 
2135	 0.181324645876884 
2136	 0.181323334574699 
2137	 0.181312546133995 
2138	 0.181294277310371 
2139	 0.181238293647766 
2140	 0.181205555796623 
2141	 0.181058079004288 
2142	 0.1807571798563 
2143	 0.180533185601234 
2144	 0.180308014154434 
2145	 0.180042818188667 
2146	 0.179841041564941 
2147	 0.179637134075165 
2148	 0.179391667246819 
2149	 0.179150149226189 
2150	 0.178785249590874 
2151	 0.17843209207058 
2152	 0.178062379360199 
2153	 0.177619114518166 
2154	 0.177215397357941 
2155	 0.176870778203011 
2156	 0.176432624459267 
2157	 0.175985038280487 
2158	 0.175470396876335 
2159	 0.174829453229904 
2160	 0.174267768859863 
2161	 0.173753038048744 
2162	 0.173121348023415 
2163	 0.172424659132957 
2164	 0.171804666519165 
2165	 0.171045437455177 
2166	 0.170360520482063 
2167	 0.169707074761391 
2168	 0.168903157114983 
2169	 0.168026983737946 
2170	 0.16699430346489 
2171	 0.165983974933624 
2172	 0.164937719702721 
2173	 0.163782835006714 
2174	 0.162560537457466 
2175	 0.161311328411102 
2176	 0.159951701760292 
2177	 0.158596709370613 
2178	 0.157249495387077 
2179	 0.155809164047241 
2180	 0.154290810227394 
2181	 0.152747914195061 
2182	 0.151138886809349 
2183	 0.14951179921627 
2184	 0.147802636027336 
2185	 0.146140873432159 
2186	 0.144442707300186 
2187	 0.142786309123039 
2188	 0.141289636492729 
2189	 0.139781311154366 
2190	 0.138273075222969 
2191	 0.136903718113899 
2192	 0.135446354746819 
2193	 0.134175091981888 
2194	 0.133191257715225 
2195	 0.132200717926025 
2196	 0.131378248333931 
2197	 0.130742385983467 
2198	 0.130178585648537 
2199	 0.129688397049904 
2200	 0.129415512084961 
2201	 0.129388526082039 
2202	 0.129331544041634 
2203	 0.129319131374359 
2204	 0.129479333758354 
2205	 0.129749566316605 
2206	 0.130116522312164 
2207	 0.130692034959793 
2208	 0.13126765191555 
2209	 0.131915032863617 
2210	 0.132544785737991 
2211	 0.13316085934639 
2212	 0.133924454450607 
2213	 0.134782418608665 
2214	 0.135603979229927 
2215	 0.1364636272192 
2216	 0.137535318732262 
2217	 0.138552576303482 
2218	 0.139458239078522 
2219	 0.140384092926979 
2220	 0.141294106841087 
2221	 0.142219081521034 
2222	 0.143170222640038 
2223	 0.144108951091766 
2224	 0.145133748650551 
2225	 0.146089226007462 
2226	 0.147019624710083 
2227	 0.14781291782856 
2228	 0.148601114749908 
2229	 0.149269804358482 
2230	 0.149658665060997 
2231	 0.150292009115219 
2232	 0.151056915521622 
2233	 0.151670232415199 
2234	 0.152339935302734 
2235	 0.152903974056244 
2236	 0.153252065181732 
2237	 0.153704091906548 
2238	 0.154148086905479 
2239	 0.15467780828476 
2240	 0.155194625258446 
2241	 0.155702695250511 
2242	 0.156200617551804 
2243	 0.156652003526688 
2244	 0.157032653689384 
2245	 0.157458454370499 
2246	 0.157826602458954 
2247	 0.158148840069771 
2248	 0.158486515283585 
2249	 0.158764153718948 
2250	 0.159197062253952 
2251	 0.159551903605461 
2252	 0.159860894083977 
2253	 0.160228073596954 
2254	 0.160485088825226 
2255	 0.160522133111954 
2256	 0.160810187458992 
2257	 0.161178350448608 
2258	 0.161475792527199 
2259	 0.161946535110474 
2260	 0.162271276116371 
2261	 0.162408426403999 
2262	 0.162653908133507 
2263	 0.162961825728416 
2264	 0.16315484046936 
2265	 0.163325995206833 
2266	 0.163497164845467 
2267	 0.1635622382164 
2268	 0.163679838180542 
2269	 0.163921594619751 
2270	 0.164000824093819 
2271	 0.163986966013908 
2272	 0.163970932364464 
2273	 0.164007678627968 
2274	 0.163920372724533 
2275	 0.163947775959969 
2276	 0.164082244038582 
2277	 0.164147302508354 
2278	 0.164225861430168 
2279	 0.164342194795609 
2280	 0.164347395300865 
2281	 0.164155170321465 
2282	 0.163977518677711 
2283	 0.16381049156189 
2284	 0.163594424724579 
2285	 0.16351093351841 
2286	 0.163533300161362 
2287	 0.163477972149849 
2288	 0.163235560059547 
2289	 0.162955269217491 
2290	 0.162711933255196 
2291	 0.162488475441933 
2292	 0.162393882870674 
2293	 0.162113964557648 
2294	 0.161692246794701 
2295	 0.161357060074806 
2296	 0.160971373319626 
2297	 0.160606488585472 
2298	 0.160359397530556 
2299	 0.159971341490746 
2300	 0.159402951598167 
2301	 0.158990323543549 
2302	 0.158624276518822 
2303	 0.158265963196754 
2304	 0.158059045672417 
2305	 0.157649457454681 
2306	 0.157111927866936 
2307	 0.156608238816261 
2308	 0.156021043658257 
2309	 0.155437722802162 
2310	 0.154869586229324 
2311	 0.15431934595108 
2312	 0.153694823384285 
2313	 0.153142541646957 
2314	 0.152689069509506 
2315	 0.152141243219376 
2316	 0.15159597992897 
2317	 0.151031970977783 
2318	 0.150166779756546 
2319	 0.149579659104347 
2320	 0.149023279547691 
2321	 0.148302614688873 
2322	 0.147851005196571 
2323	 0.147189170122147 
2324	 0.146450504660606 
2325	 0.146035507321358 
2326	 0.14536327123642 
2327	 0.144674703478813 
2328	 0.144268542528152 
2329	 0.143542692065239 
2330	 0.142807751893997 
2331	 0.142176225781441 
2332	 0.141369193792343 
2333	 0.140777334570885 
2334	 0.140289381146431 
2335	 0.139732718467712 
2336	 0.13908363878727 
2337	 0.13829742372036 
2338	 0.137659907341003 
2339	 0.137353330850601 
2340	 0.137061685323715 
2341	 0.136618763208389 
2342	 0.136224389076233 
2343	 0.135840862989426 
2344	 0.135558843612671 
2345	 0.135453328490257 
2346	 0.135343492031097 
2347	 0.135104939341545 
2348	 0.134808748960495 
2349	 0.134657964110374 
2350	 0.134625405073166 
2351	 0.134756699204445 
2352	 0.134793356060982 
2353	 0.134893536567688 
2354	 0.134986385703087 
2355	 0.134988710284233 
2356	 0.135107383131981 
2357	 0.135338932275772 
2358	 0.135600835084915 
2359	 0.135892376303673 
2360	 0.136211648583412 
2361	 0.136740699410439 
2362	 0.136913731694221 
2363	 0.136852979660034 
2364	 0.136975795030594 
2365	 0.136972099542618 
2366	 0.137055188417435 
2367	 0.137422025203705 
2368	 0.137510180473328 
2369	 0.137248486280441 
2370	 0.137312933802605 
2371	 0.137467846274376 
2372	 0.137604877352715 
2373	 0.138123944401741 
2374	 0.138125583529472 
2375	 0.137667745351791 
2376	 0.137511625885963 
2377	 0.13714474439621 
2378	 0.137138709425926 
2379	 0.137698948383331 
2380	 0.137724295258522 
2381	 0.137475803494453 
2382	 0.137385711073875 
2383	 0.137093171477318 
2384	 0.13702891767025 
2385	 0.13718318939209 
2386	 0.137419536709785 
2387	 0.137866467237473 
2388	 0.137934222817421 
2389	 0.137990102171898 
2390	 0.137924253940582 
2391	 0.137399315834045 
2392	 0.137300491333008 
2393	 0.137476876378059 
2394	 0.137437984347343 
2395	 0.137435510754585 
2396	 0.137358263134956 
2397	 0.137135788798332 
2398	 0.137041479349136 
2399	 0.13703390955925 
2400	 0.136845380067825 
2401	 0.136635392904282 
2402	 0.136389911174774 
2403	 0.135942935943604 
2404	 0.135714128613472 
2405	 0.135624274611473 
2406	 0.135388359427452 
2407	 0.135087445378304 
2408	 0.13487383723259 
2409	 0.134685188531876 
2410	 0.134467333555222 
2411	 0.134443432092667 
2412	 0.134216204285622 
2413	 0.133740708231926 
2414	 0.133335039019585 
2415	 0.13283197581768 
2416	 0.132453709840775 
2417	 0.132223382592201 
2418	 0.131861120462418 
2419	 0.131489992141724 
2420	 0.131056427955627 
2421	 0.130652964115143 
2422	 0.129913449287415 
2423	 0.128736570477486 
2424	 0.128173500299454 
2425	 0.12750232219696 
2426	 0.127237007021904 
2427	 0.127892270684242 
2428	 0.127801403403282 
2429	 0.12738399207592 
2430	 0.127180889248848 
2431	 0.126895681023598 
2432	 0.126501709222794 
2433	 0.126170873641968 
2434	 0.12573179602623 
2435	 0.124967366456985 
2436	 0.124568156898022 
2437	 0.124215550720692 
2438	 0.12419942766428 
2439	 0.124523967504501 
2440	 0.124778404831886 
2441	 0.125429838895798 
2442	 0.125559195876122 
2443	 0.125329673290253 
2444	 0.125318393111229 
2445	 0.125255733728409 
2446	 0.125167638063431 
2447	 0.125164151191711 
2448	 0.125162720680237 
2449	 0.12496580183506 
2450	 0.124912537634373 
2451	 0.125055447220802 
2452	 0.125213250517845 
2453	 0.125298887491226 
2454	 0.125699758529663 
2455	 0.126065641641617 
2456	 0.125943601131439 
2457	 0.125957995653152 
2458	 0.125967979431152 
2459	 0.12573704123497 
2460	 0.126251593232155 
2461	 0.126802876591682 
2462	 0.126846462488174 
2463	 0.127209559082985 
2464	 0.126639306545258 
2465	 0.12661100924015 
2466	 0.127070546150208 
2467	 0.127411782741547 
2468	 0.128091782331467 
2469	 0.12858322262764 
2470	 0.129124537110329 
2471	 0.129171252250671 
2472	 0.128735557198524 
2473	 0.128489956259727 
2474	 0.127919867634773 
2475	 0.127446532249451 
2476	 0.126940086483955 
2477	 0.126833498477936 
2478	 0.126630887389183 
2479	 0.126979067921638 
2480	 0.128585293889046 
2481	 0.129150986671448 
2482	 0.129443228244781 
2483	 0.129652425646782 
2484	 0.128954842686653 
2485	 0.128940373659134 
2486	 0.129464879631996 
2487	 0.129688203334808 
2488	 0.130076289176941 
2489	 0.130152806639671 
2490	 0.1298688352108 
2491	 0.129788115620613 
2492	 0.129564061760902 
2493	 0.129587009549141 
2494	 0.129791438579559 
2495	 0.130070999264717 
2496	 0.130566701292992 
2497	 0.130896151065826 
2498	 0.131276369094849 
2499	 0.131459847092628 
2500	 0.131482601165771 
