
Text conversion of header file \A_MEDIDAS\PROJETOS\BRASIL\BLOCO GAVIAO\JACOBINA\CANIF27\sco\CANIF27_036.20_00000.asd.ref
 -------------------------------------------------------------
                                                                                                                                                            
The instrument number was  16586/1
New ASD spectrum file: Program version = 6.00 file version = 1.00
Spectrum saved: 10/16/2018 at 10:27:21
VNIR integration time : 34
VNIR channel 1 wavelength = 350 wavelength step = 1
There were 50 samples per data value
xmin = 350 xmax= 2500
ymin= 0 ymax= 1.25
The instrument digitizes spectral values to 16 bits
SWIR1 gain was 203 offset was 2094
SWIR2 gain was 499 offset was 2264
Join between VNIR and SWIR1 was 1000 nm
Join between SWIR1 and SWIR2 was 1830 nm
Absolute Reflectance is Enabled
The Absolute Reflectance File is abs165861.ref
VNIR dark signal subtracted
50 dark measurements taken Tue Oct 16 10:13:56 2018
DCC value was 0
Data is compared to a white reference:
60 white reference measurements taken Tue Oct 16 10:14:04 2018
There was no foreoptic attached
Spectrum file is reflectance data
GPS-Latitude is S0
GPS-Longitude is E0
GPS-Altitude is 0
GPS-UTC is Wed Dec 31 17:00:00 1969

Smart Detector
Serial#  0
Signal (A)  0.000E00
Dark (A)  0.000E00
Ref (A)  0.000E00
Status  0 - Uninitialized
Gain  E-4
Averaging  0
Temp (C)  0.0
Humid (%)  0.0

Reflectance Absolute
Wavelength	CANIF27_36.20_00000.asd.ref
350	 0.221821948885918 
351	 0.206388056278229 
352	 0.207503408193588 
353	 0.217450931668282 
354	 0.221606880426407 
355	 0.207866564393044 
356	 0.206428065896034 
357	 0.212552413344383 
358	 0.212815582752228 
359	 0.212598904967308 
360	 0.215884119272232 
361	 0.219333603978157 
362	 0.216153174638748 
363	 0.214128822088242 
364	 0.215748459100723 
365	 0.218348383903503 
366	 0.21361169219017 
367	 0.210401952266693 
368	 0.212034314870834 
369	 0.21756049990654 
370	 0.219566971063614 
371	 0.217234879732132 
372	 0.214384868741035 
373	 0.215666875243187 
374	 0.21699246764183 
375	 0.217782869935036 
376	 0.216906473040581 
377	 0.21260629594326 
378	 0.214678511023521 
379	 0.218001276254654 
380	 0.217934086918831 
381	 0.217499196529388 
382	 0.216280981898308 
383	 0.215840727090836 
384	 0.217281386256218 
385	 0.215644881129265 
386	 0.215400412678719 
387	 0.216725870966911 
388	 0.215858489274979 
389	 0.216767206788063 
390	 0.217196375131607 
391	 0.216084972023964 
392	 0.216892421245575 
393	 0.216295748949051 
394	 0.215680480003357 
395	 0.216917723417282 
396	 0.216818824410439 
397	 0.216545075178146 
398	 0.216517999768257 
399	 0.216430217027664 
400	 0.215901389718056 
401	 0.216055318713188 
402	 0.216989055275917 
403	 0.216653421521187 
404	 0.216741427779198 
405	 0.216896161437035 
406	 0.216461539268494 
407	 0.216054350137711 
408	 0.215474814176559 
409	 0.215128749608994 
410	 0.215663328766823 
411	 0.215907379984856 
412	 0.215514630079269 
413	 0.214702278375626 
414	 0.214286163449287 
415	 0.214986816048622 
416	 0.215239688754082 
417	 0.214095532894135 
418	 0.215251848101616 
419	 0.215542778372765 
420	 0.214771881699562 
421	 0.214602380990982 
422	 0.214487925171852 
423	 0.214485257863998 
424	 0.214342281222343 
425	 0.21319916844368 
426	 0.213569700717926 
427	 0.214391633868217 
428	 0.214250311255455 
429	 0.214017733931541 
430	 0.214158281683922 
431	 0.214444890618324 
432	 0.214312702417374 
433	 0.214389875531197 
434	 0.2142104357481 
435	 0.213757812976837 
436	 0.213858082890511 
437	 0.214028939604759 
438	 0.214219465851784 
439	 0.214386612176895 
440	 0.214045688509941 
441	 0.214127913117409 
442	 0.214455038309097 
443	 0.214207738637924 
444	 0.214032292366028 
445	 0.21411719918251 
446	 0.214351549744606 
447	 0.214243024587631 
448	 0.214222982525826 
449	 0.21432814002037 
450	 0.214445814490318 
451	 0.214345574378967 
452	 0.214298859238625 
453	 0.214420706033707 
454	 0.214659124612808 
455	 0.214552700519562 
456	 0.214403599500656 
457	 0.214413732290268 
458	 0.214374050498009 
459	 0.214440003037453 
460	 0.214451849460602 
461	 0.214281931519508 
462	 0.214477509260178 
463	 0.214531883597374 
464	 0.214327827095985 
465	 0.214136779308319 
466	 0.21403831243515 
467	 0.214133113622665 
468	 0.214358910918236 
469	 0.214293360710144 
470	 0.214279666543007 
471	 0.214292004704475 
472	 0.214208409190178 
473	 0.214240118861198 
474	 0.214256405830383 
475	 0.214186295866966 
476	 0.214056983590126 
477	 0.214261099696159 
478	 0.214450314640999 
479	 0.214365914463997 
480	 0.21444346010685 
481	 0.214521571993828 
482	 0.214571997523308 
483	 0.214623555541039 
484	 0.214648976922035 
485	 0.21462969481945 
486	 0.214631766080856 
487	 0.214829578995705 
488	 0.214935928583145 
489	 0.214981287717819 
490	 0.215063571929932 
491	 0.215218394994736 
492	 0.215263292193413 
493	 0.215244382619858 
494	 0.215333178639412 
495	 0.215352714061737 
496	 0.215375050902367 
497	 0.215442165732384 
498	 0.215494990348816 
499	 0.215569451451302 
500	 0.215642511844635 
501	 0.215691432356834 
502	 0.215766534209251 
503	 0.215875580906868 
504	 0.215995267033577 
505	 0.216071560978889 
506	 0.215961202979088 
507	 0.215804561972618 
508	 0.215760201215744 
509	 0.215941622853279 
510	 0.216142490506172 
511	 0.216165602207184 
512	 0.215941220521927 
513	 0.216024830937386 
514	 0.216116428375244 
515	 0.216074153780937 
516	 0.215980768203735 
517	 0.216099545359612 
518	 0.216160982847214 
519	 0.215997010469437 
520	 0.215997233986855 
521	 0.216021299362183 
522	 0.21602688729763 
523	 0.216020688414574 
524	 0.216047182679176 
525	 0.216032668948174 
526	 0.215999320149422 
527	 0.216104313731194 
528	 0.216127127408981 
529	 0.216105788946152 
530	 0.216124668717384 
531	 0.216198638081551 
532	 0.216213151812553 
533	 0.216155499219894 
534	 0.21609403192997 
535	 0.216176554560661 
536	 0.216293707489967 
537	 0.21635103225708 
538	 0.216336622834206 
539	 0.21631446480751 
540	 0.216287329792976 
541	 0.216254189610481 
542	 0.216289520263672 
543	 0.216339498758316 
544	 0.216392308473587 
545	 0.216471329331398 
546	 0.216504871845245 
547	 0.216518968343735 
548	 0.21656708419323 
549	 0.216735884547234 
550	 0.216876849532127 
551	 0.216985926032066 
552	 0.217118963599205 
553	 0.217308089137077 
554	 0.217506855726242 
555	 0.217746391892433 
556	 0.218139588832855 
557	 0.218419536948204 
558	 0.218544021248817 
559	 0.21855728328228 
560	 0.218544587492943 
561	 0.218732684850693 
562	 0.219065651297569 
563	 0.219323590397835 
564	 0.219344928860664 
565	 0.219283550977707 
566	 0.219288900494576 
567	 0.219446286559105 
568	 0.219869405031204 
569	 0.220485717058182 
570	 0.221137687563896 
571	 0.221619337797165 
572	 0.221960335969925 
573	 0.222265303134918 
574	 0.222667872905731 
575	 0.223062887787819 
576	 0.223260253667831 
577	 0.223199412226677 
578	 0.223066732287407 
579	 0.222817599773407 
580	 0.222632274031639 
581	 0.222674116492271 
582	 0.22269381582737 
583	 0.222906231880188 
584	 0.223460450768471 
585	 0.224392279982567 
586	 0.225153118371964 
587	 0.225312784314156 
588	 0.224786967039108 
589	 0.224072024226189 
590	 0.223515048623085 
591	 0.22329868376255 
592	 0.223426789045334 
593	 0.223560020327568 
594	 0.223685726523399 
595	 0.223813325166702 
596	 0.223945394158363 
597	 0.223850280046463 
598	 0.223681643605232 
599	 0.223628982901573 
600	 0.223736971616745 
601	 0.22393636405468 
602	 0.224174290895462 
603	 0.224412366747856 
604	 0.224663779139519 
605	 0.224846959114075 
606	 0.224892288446426 
607	 0.22475928068161 
608	 0.224629700183868 
609	 0.224522948265076 
610	 0.224416732788086 
611	 0.224297985434532 
612	 0.224247872829437 
613	 0.224265947937965 
614	 0.224306166172028 
615	 0.224420145153999 
616	 0.224535763263702 
617	 0.224606961011887 
618	 0.224648088216782 
619	 0.224702805280685 
620	 0.224776551127434 
621	 0.224847182631493 
622	 0.224833339452744 
623	 0.224884524941444 
624	 0.225021213293076 
625	 0.225163832306862 
626	 0.225252762436867 
627	 0.225382760167122 
628	 0.225575879216194 
629	 0.225686013698578 
630	 0.22585029900074 
631	 0.226043507456779 
632	 0.226202726364136 
633	 0.226323589682579 
634	 0.226501628756523 
635	 0.226740509271622 
636	 0.226965889334679 
637	 0.227108210325241 
638	 0.227296948432922 
639	 0.227589473128319 
640	 0.227854758501053 
641	 0.228098824620247 
642	 0.228269308805466 
643	 0.228341832756996 
644	 0.228468686342239 
645	 0.228635057806969 
646	 0.228808283805847 
647	 0.228951588273048 
648	 0.229109808802605 
649	 0.22935751080513 
650	 0.229688718914986 
651	 0.229933738708496 
652	 0.230244189500809 
653	 0.230595782399178 
654	 0.230910405516624 
655	 0.231143712997437 
656	 0.231392607092857 
657	 0.231722608208656 
658	 0.232146561145782 
659	 0.232442691922188 
660	 0.232722088694572 
661	 0.233077898621559 
662	 0.233465284109116 
663	 0.233922302722931 
664	 0.234395489096642 
665	 0.23481148481369 
666	 0.235154002904892 
667	 0.235476672649384 
668	 0.235851958394051 
669	 0.236340954899788 
670	 0.236768946051598 
671	 0.237193793058395 
672	 0.237625166773796 
673	 0.237926989793777 
674	 0.23832656443119 
675	 0.238793045282364 
676	 0.239199712872505 
677	 0.239387288689613 
678	 0.239552333950996 
679	 0.239751726388931 
680	 0.239936754107475 
681	 0.240063741803169 
682	 0.2402233928442 
683	 0.240445271134377 
684	 0.240647524595261 
685	 0.240786641836166 
686	 0.240999639034271 
687	 0.241394951939583 
688	 0.241845488548279 
689	 0.242270201444626 
690	 0.242623046040535 
691	 0.242906585335732 
692	 0.243263259530067 
693	 0.243621319532394 
694	 0.243958085775375 
695	 0.244333758950233 
696	 0.244738772511482 
697	 0.245241671800613 
698	 0.245845943689346 
699	 0.246349051594734 
700	 0.246932581067085 
701	 0.247497767210007 
702	 0.247898280620575 
703	 0.248381778597832 
704	 0.24886853992939 
705	 0.24935294687748 
706	 0.249897390604019 
707	 0.250307589769363 
708	 0.250726521015167 
709	 0.251226186752319 
710	 0.251644194126129 
711	 0.252033531665802 
712	 0.252441853284836 
713	 0.252895534038544 
714	 0.253347337245941 
715	 0.253731220960617 
716	 0.254117876291275 
717	 0.254619866609573 
718	 0.25494122505188 
719	 0.255306124687195 
720	 0.25576439499855 
721	 0.256085693836212 
722	 0.256456553936005 
723	 0.256884127855301 
724	 0.257308512926102 
725	 0.257595598697662 
726	 0.257911622524261 
727	 0.258278220891953 
728	 0.25865513086319 
729	 0.259024143218994 
730	 0.259270697832108 
731	 0.259483903646469 
732	 0.259881675243378 
733	 0.2602399289608 
734	 0.260529786348343 
735	 0.260758310556412 
736	 0.26094326376915 
737	 0.26114347577095 
738	 0.261373370885849 
739	 0.26165497303009 
740	 0.262100219726563 
741	 0.262395322322845 
742	 0.262563347816467 
743	 0.262760668992996 
744	 0.262928307056427 
745	 0.263136148452759 
746	 0.263402998447418 
747	 0.263688445091248 
748	 0.263844668865204 
749	 0.264075189828873 
750	 0.264398843050003 
751	 0.264481008052826 
752	 0.264670699834824 
753	 0.264917373657227 
754	 0.265121638774872 
755	 0.265348792076111 
756	 0.265521258115768 
757	 0.265638530254364 
758	 0.26574495434761 
759	 0.265916019678116 
760	 0.266107678413391 
761	 0.266295969486237 
762	 0.266483157873154 
763	 0.266718029975891 
764	 0.266937494277954 
765	 0.267094373703003 
766	 0.267184227705002 
767	 0.267223834991455 
768	 0.267260491847992 
769	 0.267347693443298 
770	 0.267549782991409 
771	 0.267692416906357 
772	 0.267808079719543 
773	 0.267947345972061 
774	 0.267929255962372 
775	 0.267958909273148 
776	 0.268085688352585 
777	 0.268240034580231 
778	 0.268259674310684 
779	 0.268314331769943 
780	 0.268421113491058 
781	 0.268446058034897 
782	 0.268544524908066 
783	 0.268617361783981 
784	 0.268612086772919 
785	 0.268600970506668 
786	 0.268610566854477 
787	 0.268651932477951 
788	 0.26869460940361 
789	 0.268616616725922 
790	 0.268619775772095 
791	 0.268677830696106 
792	 0.268703550100327 
793	 0.26870459318161 
794	 0.268709570169449 
795	 0.268749952316284 
796	 0.268823057413101 
797	 0.268736362457275 
798	 0.268698066473007 
799	 0.268712401390076 
800	 0.268621206283569 
801	 0.268607378005981 
802	 0.268614649772644 
803	 0.268633842468262 
804	 0.268737316131592 
805	 0.268729716539383 
806	 0.268756508827209 
807	 0.26888120174408 
808	 0.268908441066742 
809	 0.268940925598145 
810	 0.268996357917786 
811	 0.269042938947678 
812	 0.268964886665344 
813	 0.2689528465271 
814	 0.269044309854507 
815	 0.269159406423569 
816	 0.269015163183212 
817	 0.268943965435028 
818	 0.268957555294037 
819	 0.268927037715912 
820	 0.268947899341583 
821	 0.268979847431183 
822	 0.269014686346054 
823	 0.26906430721283 
824	 0.269083261489868 
825	 0.269083708524704 
826	 0.269049435853958 
827	 0.268950134515762 
828	 0.26893612742424 
829	 0.268992125988007 
830	 0.269061684608459 
831	 0.269075125455856 
832	 0.269020885229111 
833	 0.268931984901428 
834	 0.268855303525925 
835	 0.268837928771973 
836	 0.268906235694885 
837	 0.268974334001541 
838	 0.268975168466568 
839	 0.268942892551422 
840	 0.268815457820892 
841	 0.268736928701401 
842	 0.268797099590302 
843	 0.268787145614624 
844	 0.268830180168152 
845	 0.268867045640945 
846	 0.268823504447937 
847	 0.268766582012177 
848	 0.268782764673233 
849	 0.268791556358337 
850	 0.268713504076004 
851	 0.268767297267914 
852	 0.268827855587006 
853	 0.268863946199417 
854	 0.268884658813477 
855	 0.268836796283722 
856	 0.26875165104866 
857	 0.268699765205383 
858	 0.268730372190475 
859	 0.268674433231354 
860	 0.268706887960434 
861	 0.268827944993973 
862	 0.268901139497757 
863	 0.2688148021698 
864	 0.268778771162033 
865	 0.268785804510117 
866	 0.268697708845139 
867	 0.268824428319931 
868	 0.268827110528946 
869	 0.268730252981186 
870	 0.268853217363358 
871	 0.26898193359375 
872	 0.269097506999969 
873	 0.269146114587784 
874	 0.269058406352997 
875	 0.268982768058777 
876	 0.268939048051834 
877	 0.269000440835953 
878	 0.269251853227615 
879	 0.269366025924683 
880	 0.269400835037231 
881	 0.269430905580521 
882	 0.269487082958221 
883	 0.26952737569809 
884	 0.269543409347534 
885	 0.269583284854889 
886	 0.269718945026398 
887	 0.2697773873806 
888	 0.2698615193367 
889	 0.269970625638962 
890	 0.269982129335403 
891	 0.269927501678467 
892	 0.269925743341446 
893	 0.26998171210289 
894	 0.270003259181976 
895	 0.270153850317001 
896	 0.270325213670731 
897	 0.270453691482544 
898	 0.270551413297653 
899	 0.270620763301849 
900	 0.270629048347473 
901	 0.270645081996918 
902	 0.270789355039597 
903	 0.270919889211655 
904	 0.271018028259277 
905	 0.271104365587235 
906	 0.271214842796326 
907	 0.271333158016205 
908	 0.271450847387314 
909	 0.271581619977951 
910	 0.271717220544815 
911	 0.271635323762894 
912	 0.271629810333252 
913	 0.271739810705185 
914	 0.271841913461685 
915	 0.271981179714203 
916	 0.272067248821259 
917	 0.272162079811096 
918	 0.272352486848831 
919	 0.272468417882919 
920	 0.272646188735962 
921	 0.272832483053207 
922	 0.272906392812729 
923	 0.272809952497482 
924	 0.272872358560562 
925	 0.273096978664398 
926	 0.273350685834885 
927	 0.273521244525909 
928	 0.273682981729507 
929	 0.27384278178215 
930	 0.273991227149963 
931	 0.274126321077347 
932	 0.274167686700821 
933	 0.274255752563477 
934	 0.274410754442215 
935	 0.274396389722824 
936	 0.274495452642441 
937	 0.274762898683548 
938	 0.275058776140213 
939	 0.275108724832535 
940	 0.27506810426712 
941	 0.275026828050613 
942	 0.275058090686798 
943	 0.275198698043823 
944	 0.275376051664352 
945	 0.275532603263855 
946	 0.275598227977753 
947	 0.275549590587616 
948	 0.275593340396881 
949	 0.275586545467377 
950	 0.275414437055588 
951	 0.275101453065872 
952	 0.275024831295013 
953	 0.274945497512817 
954	 0.274782031774521 
955	 0.274566382169724 
956	 0.274443089962006 
957	 0.274314403533936 
958	 0.274244725704193 
959	 0.274245291948318 
960	 0.274207234382629 
961	 0.27423095703125 
962	 0.274335086345673 
963	 0.274504840373993 
964	 0.274711132049561 
965	 0.274970352649689 
966	 0.275250017642975 
967	 0.27556648850441 
968	 0.275942623615265 
969	 0.276270300149918 
970	 0.276781380176544 
971	 0.277314394712448 
972	 0.277658998966217 
973	 0.277936041355133 
974	 0.278263241052628 
975	 0.278566509485245 
976	 0.278737843036652 
977	 0.278744250535965 
978	 0.278902530670166 
979	 0.279189586639404 
980	 0.279421389102936 
981	 0.279422909021378 
982	 0.279557168483734 
983	 0.279660135507584 
984	 0.279709309339523 
985	 0.279753863811493 
986	 0.279724568128586 
987	 0.279785394668579 
988	 0.27993506193161 
989	 0.280109137296677 
990	 0.28024360537529 
991	 0.280241847038269 
992	 0.280279904603958 
993	 0.280394047498703 
994	 0.280458867549896 
995	 0.28061842918396 
996	 0.280701458454132 
997	 0.280685514211655 
998	 0.280674517154694 
999	 0.280826449394226 
1000	 0.281000167131424 
1001	 0.296366274356842 
1002	 0.29638010263443 
1003	 0.296486407518387 
1004	 0.296556025743485 
1005	 0.296505987644196 
1006	 0.296494543552399 
1007	 0.296511203050613 
1008	 0.296513825654984 
1009	 0.296510010957718 
1010	 0.296487927436829 
1011	 0.296499967575073 
1012	 0.296509504318237 
1013	 0.296541631221771 
1014	 0.29660028219223 
1015	 0.296679317951202 
1016	 0.296807646751404 
1017	 0.296876966953278 
1018	 0.296913921833038 
1019	 0.296953141689301 
1020	 0.296925693750381 
1021	 0.296888947486877 
1022	 0.296927452087402 
1023	 0.29697722196579 
1024	 0.296998471021652 
1025	 0.297061204910278 
1026	 0.297017186880112 
1027	 0.296851754188538 
1028	 0.29679861664772 
1029	 0.296714633703232 
1030	 0.296700924634933 
1031	 0.296797841787338 
1032	 0.296851426362991 
1033	 0.29689547419548 
1034	 0.296930640935898 
1035	 0.296876847743988 
1036	 0.2968570291996 
1037	 0.296834826469421 
1038	 0.296745747327805 
1039	 0.296708047389984 
1040	 0.296728104352951 
1041	 0.296696573495865 
1042	 0.296622514724731 
1043	 0.2966188788414 
1044	 0.296651363372803 
1045	 0.296643197536469 
1046	 0.296645671129227 
1047	 0.296656548976898 
1048	 0.296651571989059 
1049	 0.296640366315842 
1050	 0.296636879444122 
1051	 0.296663731336594 
1052	 0.296612650156021 
1053	 0.296590566635132 
1054	 0.296621382236481 
1055	 0.296704918146133 
1056	 0.296740174293518 
1057	 0.29681259393692 
1058	 0.296843647956848 
1059	 0.296782225370407 
1060	 0.29674831032753 
1061	 0.296743899583817 
1062	 0.296759724617004 
1063	 0.296770870685577 
1064	 0.296826183795929 
1065	 0.296832501888275 
1066	 0.296753138303757 
1067	 0.296733766794205 
1068	 0.296689599752426 
1069	 0.296644568443298 
1070	 0.296638369560242 
1071	 0.296580672264099 
1072	 0.296481400728226 
1073	 0.296405464410782 
1074	 0.296314120292664 
1075	 0.296102404594421 
1076	 0.296023160219193 
1077	 0.29592701792717 
1078	 0.295745015144348 
1079	 0.295699775218964 
1080	 0.295615941286087 
1081	 0.295518457889557 
1082	 0.295507609844208 
1083	 0.295426368713379 
1084	 0.295298993587494 
1085	 0.295188039541245 
1086	 0.29508501291275 
1087	 0.2949538230896 
1088	 0.294873714447021 
1089	 0.29485359787941 
1090	 0.294743359088898 
1091	 0.294597178697586 
1092	 0.294529885053635 
1093	 0.294440388679504 
1094	 0.294335007667542 
1095	 0.294225484132767 
1096	 0.294081211090088 
1097	 0.293956518173218 
1098	 0.293846309185028 
1099	 0.293732851743698 
1100	 0.293687075376511 
1101	 0.293609172105789 
1102	 0.293505400419235 
1103	 0.293396443128586 
1104	 0.293289989233017 
1105	 0.293097853660584 
1106	 0.292950630187988 
1107	 0.292806297540665 
1108	 0.292739003896713 
1109	 0.292735785245895 
1110	 0.292647987604141 
1111	 0.292598068714142 
1112	 0.292554587125778 
1113	 0.292495995759964 
1114	 0.292465627193451 
1115	 0.292373687028885 
1116	 0.292282402515411 
1117	 0.292214453220367 
1118	 0.292150974273682 
1119	 0.292031198740005 
1120	 0.291980803012848 
1121	 0.291969031095505 
1122	 0.291861712932587 
1123	 0.291814595460892 
1124	 0.291820377111435 
1125	 0.291757076978683 
1126	 0.291738659143448 
1127	 0.291759073734283 
1128	 0.291730135679245 
1129	 0.291713356971741 
1130	 0.291697323322296 
1131	 0.291679739952087 
1132	 0.291722565889359 
1133	 0.291720271110535 
1134	 0.291675448417664 
1135	 0.291592955589294 
1136	 0.291547060012817 
1137	 0.291446596384048 
1138	 0.291352987289429 
1139	 0.291366785764694 
1140	 0.291341811418533 
1141	 0.291327208280563 
1142	 0.291390240192413 
1143	 0.29140967130661 
1144	 0.291392296552658 
1145	 0.291375786066055 
1146	 0.291348934173584 
1147	 0.291276633739471 
1148	 0.291221499443054 
1149	 0.291197270154953 
1150	 0.29116690158844 
1151	 0.291141480207443 
1152	 0.291147410869598 
1153	 0.291180074214935 
1154	 0.291148483753204 
1155	 0.291083037853241 
1156	 0.291001439094543 
1157	 0.290927767753601 
1158	 0.290851265192032 
1159	 0.290815353393555 
1160	 0.290804296731949 
1161	 0.290697395801544 
1162	 0.290587604045868 
1163	 0.290510207414627 
1164	 0.290360540151596 
1165	 0.290278702974319 
1166	 0.290215611457825 
1167	 0.29016324877739 
1168	 0.290097117424011 
1169	 0.290078431367874 
1170	 0.290004074573517 
1171	 0.289854764938354 
1172	 0.289751410484314 
1173	 0.289588689804077 
1174	 0.289407461881638 
1175	 0.289326012134552 
1176	 0.289236515760422 
1177	 0.289198786020279 
1178	 0.289206564426422 
1179	 0.289126068353653 
1180	 0.289038300514221 
1181	 0.288924634456635 
1182	 0.288781553506851 
1183	 0.288665890693665 
1184	 0.288560807704926 
1185	 0.288457930088043 
1186	 0.288366407155991 
1187	 0.288284838199615 
1188	 0.288226306438446 
1189	 0.28813698887825 
1190	 0.288031220436096 
1191	 0.287954837083817 
1192	 0.287871688604355 
1193	 0.287794232368469 
1194	 0.287741512060165 
1195	 0.287651389837265 
1196	 0.287488847970963 
1197	 0.287348747253418 
1198	 0.287290304899216 
1199	 0.287221938371658 
1200	 0.287180036306381 
1201	 0.287136793136597 
1202	 0.287063509225845 
1203	 0.286942601203918 
1204	 0.286843001842499 
1205	 0.286733031272888 
1206	 0.286642253398895 
1207	 0.286579251289368 
1208	 0.286442190408707 
1209	 0.286338269710541 
1210	 0.286253422498703 
1211	 0.286134660243988 
1212	 0.286070257425308 
1213	 0.285978138446808 
1214	 0.285856157541275 
1215	 0.285761713981628 
1216	 0.285652339458466 
1217	 0.285556703805923 
1218	 0.285472333431244 
1219	 0.285377234220505 
1220	 0.285263061523438 
1221	 0.285169303417206 
1222	 0.285105139017105 
1223	 0.285010159015656 
1224	 0.284905880689621 
1225	 0.284802943468094 
1226	 0.284686803817749 
1227	 0.284542202949524 
1228	 0.284464240074158 
1229	 0.284384399652481 
1230	 0.284270405769348 
1231	 0.284211337566376 
1232	 0.284130096435547 
1233	 0.283982843160629 
1234	 0.283864051103592 
1235	 0.283740788698196 
1236	 0.283592611551285 
1237	 0.283511519432068 
1238	 0.283396989107132 
1239	 0.28328263759613 
1240	 0.283144921064377 
1241	 0.282972931861877 
1242	 0.282835066318512 
1243	 0.282687276601791 
1244	 0.282592535018921 
1245	 0.282575964927673 
1246	 0.282485157251358 
1247	 0.282372951507568 
1248	 0.282274812459946 
1249	 0.282182276248932 
1250	 0.282091319561005 
1251	 0.282054096460342 
1252	 0.282050430774689 
1253	 0.282052367925644 
1254	 0.282048642635345 
1255	 0.282061368227005 
1256	 0.282110661268234 
1257	 0.282134234905243 
1258	 0.282151609659195 
1259	 0.282153844833374 
1260	 0.282176554203033 
1261	 0.282124072313309 
1262	 0.28200551867485 
1263	 0.281913161277771 
1264	 0.281771391630173 
1265	 0.281679749488831 
1266	 0.281638324260712 
1267	 0.281570613384247 
1268	 0.281513005495071 
1269	 0.281433790922165 
1270	 0.281329602003098 
1271	 0.28122353553772 
1272	 0.281154096126556 
1273	 0.28107014298439 
1274	 0.280977636575699 
1275	 0.280888170003891 
1276	 0.280759006738663 
1277	 0.280619561672211 
1278	 0.280527651309967 
1279	 0.280397146940231 
1280	 0.280271261930466 
1281	 0.280161499977112 
1282	 0.28002667427063 
1283	 0.27984693646431 
1284	 0.27972537279129 
1285	 0.27961727976799 
1286	 0.279490411281586 
1287	 0.279421210289001 
1288	 0.279290914535522 
1289	 0.279083639383316 
1290	 0.278929769992828 
1291	 0.278786480426788 
1292	 0.278623700141907 
1293	 0.278499633073807 
1294	 0.278385162353516 
1295	 0.278258234262466 
1296	 0.278163522481918 
1297	 0.278058499097824 
1298	 0.277945429086685 
1299	 0.277833759784698 
1300	 0.277675777673721 
1301	 0.277540177106857 
1302	 0.277451574802399 
1303	 0.277340710163116 
1304	 0.27727010846138 
1305	 0.277115166187286 
1306	 0.276899874210358 
1307	 0.27671229839325 
1308	 0.276464372873306 
1309	 0.276281744241714 
1310	 0.276194900274277 
1311	 0.276017010211945 
1312	 0.275808274745941 
1313	 0.275589168071747 
1314	 0.275293678045273 
1315	 0.27504625916481 
1316	 0.274806618690491 
1317	 0.274624586105347 
1318	 0.274412661790848 
1319	 0.274156361818314 
1320	 0.273936301469803 
1321	 0.273742735385895 
1322	 0.273572981357574 
1323	 0.273427188396454 
1324	 0.273250102996826 
1325	 0.273033171892166 
1326	 0.2728670835495 
1327	 0.272732645273209 
1328	 0.272581398487091 
1329	 0.272430241107941 
1330	 0.272305548191071 
1331	 0.272157073020935 
1332	 0.272065550088882 
1333	 0.272035717964172 
1334	 0.272005140781403 
1335	 0.271998912096024 
1336	 0.271987587213516 
1337	 0.271988242864609 
1338	 0.271982342004776 
1339	 0.271984100341797 
1340	 0.271981686353683 
1341	 0.271981298923492 
1342	 0.271956324577332 
1343	 0.271946728229523 
1344	 0.271996229887009 
1345	 0.272023409605026 
1346	 0.272052317857742 
1347	 0.272135764360428 
1348	 0.272124201059341 
1349	 0.272104322910309 
1350	 0.272166699171066 
1351	 0.272167831659317 
1352	 0.272144585847855 
1353	 0.272105932235718 
1354	 0.272057443857193 
1355	 0.271970689296722 
1356	 0.271839082241058 
1357	 0.271727979183197 
1358	 0.2716224193573 
1359	 0.271488726139069 
1360	 0.271331191062927 
1361	 0.271181017160416 
1362	 0.271038085222244 
1363	 0.270860850811005 
1364	 0.270696103572845 
1365	 0.270485281944275 
1366	 0.270194709300995 
1367	 0.26994127035141 
1368	 0.269677430391312 
1369	 0.269433975219727 
1370	 0.269231528043747 
1371	 0.268989205360413 
1372	 0.268713146448135 
1373	 0.26846581697464 
1374	 0.268227905035019 
1375	 0.267977476119995 
1376	 0.267727583646774 
1377	 0.267439991235733 
1378	 0.267068266868591 
1379	 0.266642808914185 
1380	 0.266170203685761 
1381	 0.265702486038208 
1382	 0.265013337135315 
1383	 0.264331787824631 
1384	 0.263274312019348 
1385	 0.262079000473022 
1386	 0.260473608970642 
1387	 0.258706301450729 
1388	 0.256358116865158 
1389	 0.253658324480057 
1390	 0.250435024499893 
1391	 0.246666729450226 
1392	 0.242553934454918 
1393	 0.237813055515289 
1394	 0.23306143283844 
1395	 0.227728232741356 
1396	 0.222738444805145 
1397	 0.217517882585526 
1398	 0.212792783975601 
1399	 0.208250746130943 
1400	 0.204109698534012 
1401	 0.200436323881149 
1402	 0.19721320271492 
1403	 0.194426000118256 
1404	 0.192056402564049 
1405	 0.19004262983799 
1406	 0.188305020332336 
1407	 0.186881929636002 
1408	 0.185748189687729 
1409	 0.184943959116936 
1410	 0.184599637985229 
1411	 0.18488797545433 
1412	 0.185550376772881 
1413	 0.187106534838676 
1414	 0.189356803894043 
1415	 0.1922467648983 
1416	 0.196027249097824 
1417	 0.200024098157883 
1418	 0.204801633954048 
1419	 0.209358498454094 
1420	 0.21441738307476 
1421	 0.218984335660934 
1422	 0.22364553809166 
1423	 0.22772890329361 
1424	 0.231530845165253 
1425	 0.234884202480316 
1426	 0.237768352031708 
1427	 0.240359678864479 
1428	 0.242529943585396 
1429	 0.24449311196804 
1430	 0.246095016598701 
1431	 0.247541889548302 
1432	 0.248704075813293 
1433	 0.249768987298012 
1434	 0.250656604766846 
1435	 0.251378536224365 
1436	 0.252050668001175 
1437	 0.252632051706314 
1438	 0.253087997436523 
1439	 0.253488272428513 
1440	 0.253813117742538 
1441	 0.254076153039932 
1442	 0.254309952259064 
1443	 0.25448602437973 
1444	 0.254607409238815 
1445	 0.25468447804451 
1446	 0.254773616790771 
1447	 0.254843175411224 
1448	 0.254903733730316 
1449	 0.254959672689438 
1450	 0.254999160766602 
1451	 0.25501549243927 
1452	 0.255039870738983 
1453	 0.255059361457825 
1454	 0.255079478025436 
1455	 0.25509175658226 
1456	 0.255102038383484 
1457	 0.255115002393723 
1458	 0.255131125450134 
1459	 0.255143970251083 
1460	 0.255155801773071 
1461	 0.255175352096558 
1462	 0.255178987979889 
1463	 0.255165129899979 
1464	 0.25517401099205 
1465	 0.255172908306122 
1466	 0.255195647478104 
1467	 0.25525376200676 
1468	 0.255290150642395 
1469	 0.255333006381989 
1470	 0.255374133586884 
1471	 0.255404829978943 
1472	 0.255431681871414 
1473	 0.255446642637253 
1474	 0.255478531122208 
1475	 0.25552099943161 
1476	 0.255552858114243 
1477	 0.255581378936768 
1478	 0.255637526512146 
1479	 0.255643516778946 
1480	 0.255672544240952 
1481	 0.255760848522186 
1482	 0.255800634622574 
1483	 0.255834370851517 
1484	 0.255873411893845 
1485	 0.255856186151505 
1486	 0.2558653652668 
1487	 0.255911707878113 
1488	 0.255936056375504 
1489	 0.25597870349884 
1490	 0.256021857261658 
1491	 0.256079345941544 
1492	 0.256160855293274 
1493	 0.25618252158165 
1494	 0.256181061267853 
1495	 0.256181508302689 
1496	 0.256112933158875 
1497	 0.256138622760773 
1498	 0.256243646144867 
1499	 0.256278812885284 
1500	 0.25631520152092 
1501	 0.256337195634842 
1502	 0.256296306848526 
1503	 0.256329029798508 
1504	 0.256411999464035 
1505	 0.256468743085861 
1506	 0.25655323266983 
1507	 0.256596058607101 
1508	 0.256592631340027 
1509	 0.256638646125793 
1510	 0.256698578596115 
1511	 0.256741344928741 
1512	 0.256813287734985 
1513	 0.256858944892883 
1514	 0.256849348545074 
1515	 0.256890028715134 
1516	 0.256972908973694 
1517	 0.25701430439949 
1518	 0.257054716348648 
1519	 0.257095694541931 
1520	 0.257110178470612 
1521	 0.25713112950325 
1522	 0.257162839174271 
1523	 0.257196664810181 
1524	 0.25723135471344 
1525	 0.257246017456055 
1526	 0.257249802350998 
1527	 0.257262527942657 
1528	 0.257274925708771 
1529	 0.257279515266418 
1530	 0.257284373044968 
1531	 0.257294803857803 
1532	 0.257291108369827 
1533	 0.257272869348526 
1534	 0.257314294576645 
1535	 0.257366746664047 
1536	 0.25739660859108 
1537	 0.257427126169205 
1538	 0.257442831993103 
1539	 0.257437705993652 
1540	 0.257438957691193 
1541	 0.257456302642822 
1542	 0.257478058338165 
1543	 0.25750795006752 
1544	 0.257541596889496 
1545	 0.257556110620499 
1546	 0.257557421922684 
1547	 0.257551223039627 
1548	 0.257556140422821 
1549	 0.257596284151077 
1550	 0.257623463869095 
1551	 0.257619589567184 
1552	 0.257592856884003 
1553	 0.25753653049469 
1554	 0.257493883371353 
1555	 0.257487595081329 
1556	 0.257508188486099 
1557	 0.257533371448517 
1558	 0.257543742656708 
1559	 0.257549405097961 
1560	 0.257526278495789 
1561	 0.257499098777771 
1562	 0.257498860359192 
1563	 0.257476896047592 
1564	 0.257463961839676 
1565	 0.257476568222046 
1566	 0.257455557584763 
1567	 0.257435411214828 
1568	 0.257444322109222 
1569	 0.25747886300087 
1570	 0.257475465536118 
1571	 0.257489621639252 
1572	 0.257472604513168 
1573	 0.257385820150375 
1574	 0.257377147674561 
1575	 0.25741446018219 
1576	 0.257411122322083 
1577	 0.257427871227264 
1578	 0.257430225610733 
1579	 0.257380932569504 
1580	 0.257385343313217 
1581	 0.257437497377396 
1582	 0.257441252470016 
1583	 0.257444143295288 
1584	 0.257429510354996 
1585	 0.257375061511993 
1586	 0.257353276014328 
1587	 0.25735005736351 
1588	 0.257333159446716 
1589	 0.257296323776245 
1590	 0.257306307554245 
1591	 0.25734207034111 
1592	 0.257347851991653 
1593	 0.257380127906799 
1594	 0.257392793893814 
1595	 0.25736391544342 
1596	 0.257368385791779 
1597	 0.257398158311844 
1598	 0.257414191961288 
1599	 0.257429629564285 
1600	 0.257421314716339 
1601	 0.257422477006912 
1602	 0.257389008998871 
1603	 0.257291346788406 
1604	 0.257260024547577 
1605	 0.257252305746078 
1606	 0.257213920354843 
1607	 0.25719353556633 
1608	 0.257182329893112 
1609	 0.257161200046539 
1610	 0.257120460271835 
1611	 0.257082790136337 
1612	 0.257053643465042 
1613	 0.256983011960983 
1614	 0.256956577301025 
1615	 0.256980538368225 
1616	 0.256986290216446 
1617	 0.257006525993347 
1618	 0.256996780633926 
1619	 0.256985574960709 
1620	 0.256952881813049 
1621	 0.256872415542603 
1622	 0.25682407617569 
1623	 0.256765842437744 
1624	 0.256746381521225 
1625	 0.256771385669708 
1626	 0.25677216053009 
1627	 0.256800323724747 
1628	 0.256780028343201 
1629	 0.256702691316605 
1630	 0.256662219762802 
1631	 0.256623029708862 
1632	 0.256595969200134 
1633	 0.256607532501221 
1634	 0.256586343050003 
1635	 0.256532698869705 
1636	 0.256491482257843 
1637	 0.256436973810196 
1638	 0.256397426128387 
1639	 0.25639733672142 
1640	 0.256363391876221 
1641	 0.256301373243332 
1642	 0.256275922060013 
1643	 0.256240844726563 
1644	 0.256203234195709 
1645	 0.256215929985046 
1646	 0.256182283163071 
1647	 0.256087332963943 
1648	 0.256074577569962 
1649	 0.256087273359299 
1650	 0.25606581568718 
1651	 0.256086796522141 
1652	 0.256066650152206 
1653	 0.256011605262756 
1654	 0.255957365036011 
1655	 0.255885303020477 
1656	 0.25584602355957 
1657	 0.255791693925858 
1658	 0.255754798650742 
1659	 0.255768030881882 
1660	 0.255728513002396 
1661	 0.255649864673615 
1662	 0.255623877048492 
1663	 0.25561785697937 
1664	 0.255584508180618 
1665	 0.255573391914368 
1666	 0.255532681941986 
1667	 0.255449682474136 
1668	 0.255444020032883 
1669	 0.255429893732071 
1670	 0.25537320971489 
1671	 0.255336344242096 
1672	 0.255271822214127 
1673	 0.255187779664993 
1674	 0.255139827728271 
1675	 0.25513231754303 
1676	 0.255117774009705 
1677	 0.255074739456177 
1678	 0.255029231309891 
1679	 0.254993349313736 
1680	 0.254952996969223 
1681	 0.254939407110214 
1682	 0.254949063062668 
1683	 0.254919707775116 
1684	 0.254912406206131 
1685	 0.25492337346077 
1686	 0.254867494106293 
1687	 0.254815936088562 
1688	 0.254748046398163 
1689	 0.254623681306839 
1690	 0.254568576812744 
1691	 0.254560947418213 
1692	 0.254523307085037 
1693	 0.254492849111557 
1694	 0.254449427127838 
1695	 0.254343926906586 
1696	 0.254252076148987 
1697	 0.254227489233017 
1698	 0.254169315099716 
1699	 0.254096567630768 
1700	 0.254057228565216 
1701	 0.25395593047142 
1702	 0.25388702750206 
1703	 0.253894865512848 
1704	 0.253832578659058 
1705	 0.253764063119888 
1706	 0.253711014986038 
1707	 0.253608793020248 
1708	 0.253532350063324 
1709	 0.253484696149826 
1710	 0.253400325775146 
1711	 0.253290385007858 
1712	 0.253189623355865 
1713	 0.253105819225311 
1714	 0.253056526184082 
1715	 0.25302329659462 
1716	 0.252967566251755 
1717	 0.252890259027481 
1718	 0.252806067466736 
1719	 0.252734899520874 
1720	 0.252673745155334 
1721	 0.252618104219437 
1722	 0.252568960189819 
1723	 0.252502471208572 
1724	 0.252446800470352 
1725	 0.252414762973785 
1726	 0.25232270359993 
1727	 0.252230882644653 
1728	 0.252120494842529 
1729	 0.252027064561844 
1730	 0.251932710409164 
1731	 0.251833736896515 
1732	 0.251766264438629 
1733	 0.251650214195251 
1734	 0.251487076282501 
1735	 0.25138196349144 
1736	 0.251267611980438 
1737	 0.251192808151245 
1738	 0.251142591238022 
1739	 0.25106480717659 
1740	 0.25095534324646 
1741	 0.250812143087387 
1742	 0.250651657581329 
1743	 0.250550717115402 
1744	 0.250450730323792 
1745	 0.250316709280014 
1746	 0.250237584114075 
1747	 0.250147372484207 
1748	 0.250008255243301 
1749	 0.24994207918644 
1750	 0.249893143773079 
1751	 0.249764934182167 
1752	 0.249657049775124 
1753	 0.249544322490692 
1754	 0.249387547373772 
1755	 0.249257102608681 
1756	 0.249153658747673 
1757	 0.249004691839218 
1758	 0.248816505074501 
1759	 0.248692005872726 
1760	 0.248545467853546 
1761	 0.248369559645653 
1762	 0.248248517513275 
1763	 0.248101428151131 
1764	 0.247989431023598 
1765	 0.247940614819527 
1766	 0.247889176011086 
1767	 0.247811272740364 
1768	 0.247679814696312 
1769	 0.24754124879837 
1770	 0.247398927807808 
1771	 0.247278690338135 
1772	 0.247203469276428 
1773	 0.247138768434525 
1774	 0.247101008892059 
1775	 0.247057139873505 
1776	 0.246982172131538 
1777	 0.246866762638092 
1778	 0.246770411729813 
1779	 0.246681302785873 
1780	 0.246586456894875 
1781	 0.246537372469902 
1782	 0.246448874473572 
1783	 0.246342867612839 
1784	 0.246255487203598 
1785	 0.246144890785217 
1786	 0.246079549193382 
1787	 0.246013209223747 
1788	 0.245931148529053 
1789	 0.2458536028862 
1790	 0.245724812150002 
1791	 0.245608329772949 
1792	 0.245508536696434 
1793	 0.24543534219265 
1794	 0.245411112904549 
1795	 0.245374739170074 
1796	 0.245356246829033 
1797	 0.245315670967102 
1798	 0.245260715484619 
1799	 0.245221555233002 
1800	 0.245107293128967 
1801	 0.245008945465088 
1802	 0.24491049349308 
1803	 0.24481888115406 
1804	 0.244808629155159 
1805	 0.244756147265434 
1806	 0.244665876030922 
1807	 0.244550466537476 
1808	 0.244409993290901 
1809	 0.244287773966789 
1810	 0.244210973381996 
1811	 0.244121700525284 
1812	 0.244029507040977 
1813	 0.243924215435982 
1814	 0.243818983435631 
1815	 0.243731454014778 
1816	 0.24360479414463 
1817	 0.24347098171711 
1818	 0.243337050080299 
1819	 0.243152141571045 
1820	 0.242933452129364 
1821	 0.242772564291954 
1822	 0.242628559470177 
1823	 0.242523536086082 
1824	 0.242458671331406 
1825	 0.242360949516296 
1826	 0.242237612605095 
1827	 0.242095962166786 
1828	 0.241978600621223 
1829	 0.241879627108574 
1830	 0.24179445207119 
1831	 0.22901725769043 
1832	 0.22898630797863 
1833	 0.228922873735428 
1834	 0.228897273540497 
1835	 0.228840932250023 
1836	 0.228778764605522 
1837	 0.228675544261932 
1838	 0.228511273860931 
1839	 0.228416442871094 
1840	 0.228295758366585 
1841	 0.228247925639153 
1842	 0.22834013402462 
1843	 0.228322729468346 
1844	 0.228307127952576 
1845	 0.228319957852364 
1846	 0.228283151984215 
1847	 0.228161975741386 
1848	 0.228110194206238 
1849	 0.228105291724205 
1850	 0.228102758526802 
1851	 0.228144630789757 
1852	 0.228139311075211 
1853	 0.228136613965034 
1854	 0.228137195110321 
1855	 0.228044375777245 
1856	 0.227869510650635 
1857	 0.227733716368675 
1858	 0.227558836340904 
1859	 0.227347999811172 
1860	 0.227178633213043 
1861	 0.227112099528313 
1862	 0.227051541209221 
1863	 0.226884931325912 
1864	 0.226705998182297 
1865	 0.226474791765213 
1866	 0.226258710026741 
1867	 0.226008281111717 
1868	 0.225768774747849 
1869	 0.22549794614315 
1870	 0.225258558988571 
1871	 0.224849998950958 
1872	 0.224368587136269 
1873	 0.22386646270752 
1874	 0.22321192920208 
1875	 0.222681418061256 
1876	 0.222152575850487 
1877	 0.221550121903419 
1878	 0.220912963151932 
1879	 0.220346942543983 
1880	 0.219647586345673 
1881	 0.218973994255066 
1882	 0.218377962708473 
1883	 0.217675089836121 
1884	 0.21690870821476 
1885	 0.21606619656086 
1886	 0.215176746249199 
1887	 0.214247077703476 
1888	 0.213295981287956 
1889	 0.212321043014526 
1890	 0.211348727345467 
1891	 0.210311532020569 
1892	 0.209278076887131 
1893	 0.208264291286469 
1894	 0.207210153341293 
1895	 0.206187129020691 
1896	 0.205209076404572 
1897	 0.204237446188927 
1898	 0.203258007764816 
1899	 0.202344909310341 
1900	 0.201459005475044 
1901	 0.200637131929398 
1902	 0.199825793504715 
1903	 0.199064329266548 
1904	 0.198340654373169 
1905	 0.197564825415611 
1906	 0.196854278445244 
1907	 0.196248009800911 
1908	 0.195654034614563 
1909	 0.195120468735695 
1910	 0.194628089666367 
1911	 0.194179698824883 
1912	 0.193777725100517 
1913	 0.193465530872345 
1914	 0.193199217319489 
1915	 0.192904651165009 
1916	 0.192572176456451 
1917	 0.192257568240166 
1918	 0.191881611943245 
1919	 0.191560849547386 
1920	 0.19139252603054 
1921	 0.191217511892319 
1922	 0.191077753901482 
1923	 0.190994635224342 
1924	 0.190993294119835 
1925	 0.190894559025764 
1926	 0.1907789260149 
1927	 0.190682530403137 
1928	 0.190549269318581 
1929	 0.190487578511238 
1930	 0.19041982293129 
1931	 0.190381348133087 
1932	 0.190392151474953 
1933	 0.190362080931664 
1934	 0.190287947654724 
1935	 0.190303981304169 
1936	 0.190367639064789 
1937	 0.190358996391296 
1938	 0.19037202000618 
1939	 0.190360441803932 
1940	 0.190314441919327 
1941	 0.190318495035172 
1942	 0.190355941653252 
1943	 0.190462321043015 
1944	 0.19053390622139 
1945	 0.190587773919106 
1946	 0.190643861889839 
1947	 0.190701648592949 
1948	 0.190732702612877 
1949	 0.190876990556717 
1950	 0.191025987267494 
1951	 0.191102907061577 
1952	 0.191306158900261 
1953	 0.191463500261307 
1954	 0.191501796245575 
1955	 0.19165150821209 
1956	 0.191811844706535 
1957	 0.191927403211594 
1958	 0.19196192920208 
1959	 0.192111670970917 
1960	 0.192302420735359 
1961	 0.192485123872757 
1962	 0.192716658115387 
1963	 0.192937344312668 
1964	 0.19314993917942 
1965	 0.193319767713547 
1966	 0.193445533514023 
1967	 0.193668887019157 
1968	 0.193857312202454 
1969	 0.194011256098747 
1970	 0.194171711802483 
1971	 0.194331735372543 
1972	 0.194512918591499 
1973	 0.194660753011703 
1974	 0.194927096366882 
1975	 0.195215418934822 
1976	 0.195454075932503 
1977	 0.195678785443306 
1978	 0.195870935916901 
1979	 0.196070581674576 
1980	 0.196255847811699 
1981	 0.196437895298004 
1982	 0.196623936295509 
1983	 0.196814253926277 
1984	 0.196940571069717 
1985	 0.197165921330452 
1986	 0.197465404868126 
1987	 0.197773024439812 
1988	 0.197991773486137 
1989	 0.198195084929466 
1990	 0.198375955224037 
1991	 0.198537975549698 
1992	 0.19882832467556 
1993	 0.199132680892944 
1994	 0.199352636933327 
1995	 0.199486315250397 
1996	 0.199703425168991 
1997	 0.199887186288834 
1998	 0.200126737356186 
1999	 0.200464442372322 
2000	 0.200768306851387 
2001	 0.200973510742188 
2002	 0.201209455728531 
2003	 0.201457440853119 
2004	 0.201646536588669 
2005	 0.201814234256744 
2006	 0.202011436223984 
2007	 0.202199921011925 
2008	 0.202328398823738 
2009	 0.202521175146103 
2010	 0.202800303697586 
2011	 0.203000918030739 
2012	 0.203153491020203 
2013	 0.203355386853218 
2014	 0.203591093420982 
2015	 0.203755125403404 
2016	 0.203920990228653 
2017	 0.204125478863716 
2018	 0.20433746278286 
2019	 0.204565301537514 
2020	 0.204784885048866 
2021	 0.205072745680809 
2022	 0.205295279622078 
2023	 0.205453604459763 
2024	 0.205631345510483 
2025	 0.205806881189346 
2026	 0.205979540944099 
2027	 0.206135287880898 
2028	 0.206320002675056 
2029	 0.20649154484272 
2030	 0.206643581390381 
2031	 0.206796228885651 
2032	 0.206923604011536 
2033	 0.20700292289257 
2034	 0.207107663154602 
2035	 0.207201957702637 
2036	 0.207264855504036 
2037	 0.207340002059937 
2038	 0.207394808530807 
2039	 0.207527354359627 
2040	 0.207732424139977 
2041	 0.207866296172142 
2042	 0.208049461245537 
2043	 0.208158642053604 
2044	 0.208149552345276 
2045	 0.208235889673233 
2046	 0.208344593644142 
2047	 0.208453848958015 
2048	 0.208603709936142 
2049	 0.208819910883904 
2050	 0.208943888545036 
2051	 0.209044516086578 
2052	 0.209169313311577 
2053	 0.209269374608994 
2054	 0.209368854761124 
2055	 0.209505692124367 
2056	 0.209596812725067 
2057	 0.209628567099571 
2058	 0.209692358970642 
2059	 0.209760531783104 
2060	 0.209810242056847 
2061	 0.209848314523697 
2062	 0.209860324859619 
2063	 0.209920480847359 
2064	 0.210052981972694 
2065	 0.210153117775917 
2066	 0.210333168506622 
2067	 0.210389420390129 
2068	 0.210344880819321 
2069	 0.210365504026413 
2070	 0.210372969508171 
2071	 0.210390090942383 
2072	 0.210443690419197 
2073	 0.21046045422554 
2074	 0.210463494062424 
2075	 0.210477277636528 
2076	 0.210534766316414 
2077	 0.210535407066345 
2078	 0.210501790046692 
2079	 0.210473522543907 
2080	 0.210370123386383 
2081	 0.210181191563606 
2082	 0.210029020905495 
2083	 0.209854915738106 
2084	 0.209662064909935 
2085	 0.209476292133331 
2086	 0.209260746836662 
2087	 0.209021970629692 
2088	 0.208759352564812 
2089	 0.208471685647964 
2090	 0.208163157105446 
2091	 0.207879051566124 
2092	 0.20750230550766 
2093	 0.20711724460125 
2094	 0.206768423318863 
2095	 0.206379637122154 
2096	 0.206003502011299 
2097	 0.205651268362999 
2098	 0.205335274338722 
2099	 0.204984769225121 
2100	 0.204620510339737 
2101	 0.204291582107544 
2102	 0.203959822654724 
2103	 0.203625619411469 
2104	 0.203328371047974 
2105	 0.203021675348282 
2106	 0.202653646469116 
2107	 0.202396541833878 
2108	 0.202173978090286 
2109	 0.201837494969368 
2110	 0.201541155576706 
2111	 0.201217204332352 
2112	 0.200861513614655 
2113	 0.200636267662048 
2114	 0.200476914644241 
2115	 0.200441151857376 
2116	 0.200314357876778 
2117	 0.200185135006905 
2118	 0.200130209326744 
2119	 0.200075224041939 
2120	 0.20003679394722 
2121	 0.200078934431076 
2122	 0.200137197971344 
2123	 0.20016585290432 
2124	 0.200212895870209 
2125	 0.200296550989151 
2126	 0.200497895479202 
2127	 0.200523555278778 
2128	 0.200545087456703 
2129	 0.200697675347328 
2130	 0.200732260942459 
2131	 0.20080791413784 
2132	 0.200948446989059 
2133	 0.200943201780319 
2134	 0.200849443674088 
2135	 0.200728043913841 
2136	 0.200500145554543 
2137	 0.200298294425011 
2138	 0.200057089328766 
2139	 0.199839800596237 
2140	 0.199664443731308 
2141	 0.199417755007744 
2142	 0.199209421873093 
2143	 0.198850184679031 
2144	 0.198344528675079 
2145	 0.197858393192291 
2146	 0.197286173701286 
2147	 0.196780309081078 
2148	 0.196376368403435 
2149	 0.195780664682388 
2150	 0.195065394043922 
2151	 0.194288522005081 
2152	 0.193515658378601 
2153	 0.192667260766029 
2154	 0.191804751753807 
2155	 0.190980300307274 
2156	 0.190025597810745 
2157	 0.189018741250038 
2158	 0.187854900956154 
2159	 0.186493590474129 
2160	 0.185228601098061 
2161	 0.183968350291252 
2162	 0.182540014386177 
2163	 0.181063503026962 
2164	 0.179625645279884 
2165	 0.177893176674843 
2166	 0.175958886742592 
2167	 0.174093335866928 
2168	 0.172160759568214 
2169	 0.17013481259346 
2170	 0.167995885014534 
2171	 0.165723770856857 
2172	 0.16336852312088 
2173	 0.160908669233322 
2174	 0.158302500844002 
2175	 0.155701249837875 
2176	 0.153012737631798 
2177	 0.150272935628891 
2178	 0.147474437952042 
2179	 0.144661694765091 
2180	 0.141726136207581 
2181	 0.138883978128433 
2182	 0.135952845215797 
2183	 0.133264616131783 
2184	 0.130733460187912 
2185	 0.128223270177841 
2186	 0.125820517539978 
2187	 0.123490832746029 
2188	 0.121297091245651 
2189	 0.119216449558735 
2190	 0.117454208433628 
2191	 0.115983866155148 
2192	 0.114641726016998 
2193	 0.113505259156227 
2194	 0.112550221383572 
2195	 0.111880943179131 
2196	 0.111543826758862 
2197	 0.111487299203873 
2198	 0.111695632338524 
2199	 0.112363256514072 
2200	 0.113010615110397 
2201	 0.113767892122269 
2202	 0.11483158916235 
2203	 0.116093076765537 
2204	 0.117557920515537 
2205	 0.119345337152481 
2206	 0.121237583458424 
2207	 0.123249351978302 
2208	 0.125480905175209 
2209	 0.128138989210129 
2210	 0.13057105243206 
2211	 0.133018612861633 
2212	 0.135499939322472 
2213	 0.137992739677429 
2214	 0.140456721186638 
2215	 0.143117934465408 
2216	 0.145706564188004 
2217	 0.148011773824692 
2218	 0.150268003344536 
2219	 0.152322918176651 
2220	 0.154290199279785 
2221	 0.156127244234085 
2222	 0.157712340354919 
2223	 0.159284621477127 
2224	 0.160757720470428 
2225	 0.162041023373604 
2226	 0.163211435079575 
2227	 0.164302870631218 
2228	 0.165140777826309 
2229	 0.166077181696892 
2230	 0.167058572173119 
2231	 0.167900368571281 
2232	 0.168649077415466 
2233	 0.169383436441422 
2234	 0.170009851455688 
2235	 0.170691341161728 
2236	 0.171451613306999 
2237	 0.172046139836311 
2238	 0.17255599796772 
2239	 0.173065736889839 
2240	 0.173408880829811 
2241	 0.17376896739006 
2242	 0.174328044056892 
2243	 0.17472243309021 
2244	 0.175073280930519 
2245	 0.175503134727478 
2246	 0.175958290696144 
2247	 0.1764065772295 
2248	 0.176756113767624 
2249	 0.177155271172523 
2250	 0.177353590726852 
2251	 0.177465721964836 
2252	 0.177647665143013 
2253	 0.177829638123512 
2254	 0.178035289049149 
2255	 0.178303822875023 
2256	 0.178432255983353 
2257	 0.178512588143349 
2258	 0.178672701120377 
2259	 0.178808152675629 
2260	 0.17886258661747 
2261	 0.178889080882072 
2262	 0.179014414548874 
2263	 0.179102122783661 
2264	 0.179191261529922 
2265	 0.179501950740814 
2266	 0.17956916987896 
2267	 0.179377257823944 
2268	 0.179304242134094 
2269	 0.179223224520683 
2270	 0.179148897528648 
2271	 0.179154619574547 
2272	 0.179017305374146 
2273	 0.178819552063942 
2274	 0.178568750619888 
2275	 0.178373441100121 
2276	 0.178361758589745 
2277	 0.178362473845482 
2278	 0.178242161870003 
2279	 0.178019687533379 
2280	 0.177773773670197 
2281	 0.1775022149086 
2282	 0.177300959825516 
2283	 0.177140235900879 
2284	 0.176792562007904 
2285	 0.176277980208397 
2286	 0.175892144441605 
2287	 0.175679907202721 
2288	 0.175293982028961 
2289	 0.174766689538956 
2290	 0.174315705895424 
2291	 0.173825114965439 
2292	 0.173076510429382 
2293	 0.172546312212944 
2294	 0.172338217496872 
2295	 0.171712175011635 
2296	 0.170858785510063 
2297	 0.170105993747711 
2298	 0.169188424944878 
2299	 0.168385222554207 
2300	 0.167715534567833 
2301	 0.166885435581207 
2302	 0.165955722332001 
2303	 0.16510009765625 
2304	 0.164230793714523 
2305	 0.16332919895649 
2306	 0.162487417459488 
2307	 0.161547973752022 
2308	 0.160451903939247 
2309	 0.159520491957664 
2310	 0.158627152442932 
2311	 0.157726988196373 
2312	 0.157012596726418 
2313	 0.156039178371429 
2314	 0.154892638325691 
2315	 0.153824225068092 
2316	 0.152661755681038 
2317	 0.15147502720356 
2318	 0.150422096252441 
2319	 0.149432778358459 
2320	 0.148499205708504 
2321	 0.147481262683868 
2322	 0.146477818489075 
2323	 0.145445361733437 
2324	 0.144291028380394 
2325	 0.14325824379921 
2326	 0.142236590385437 
2327	 0.141192570328712 
2328	 0.140145629644394 
2329	 0.139133915305138 
2330	 0.138153105974197 
2331	 0.137107446789742 
2332	 0.136229604482651 
2333	 0.135351330041885 
2334	 0.134437456727028 
2335	 0.13354204595089 
2336	 0.132776990532875 
2337	 0.132211849093437 
2338	 0.131494104862213 
2339	 0.130923092365265 
2340	 0.130441293120384 
2341	 0.129825875163078 
2342	 0.129589766263962 
2343	 0.129443034529686 
2344	 0.128980845212936 
2345	 0.128716647624969 
2346	 0.128535121679306 
2347	 0.128316268324852 
2348	 0.128514006733894 
2349	 0.128776907920837 
2350	 0.128950223326683 
2351	 0.129141807556152 
2352	 0.129358410835266 
2353	 0.129504576325417 
2354	 0.129754975438118 
2355	 0.130076214671135 
2356	 0.130461886525154 
2357	 0.130899593234062 
2358	 0.131370708346367 
2359	 0.131986543536186 
2360	 0.132450148463249 
2361	 0.132872685790062 
2362	 0.133273407816887 
2363	 0.133614346385002 
2364	 0.133930265903473 
2365	 0.134269312024117 
2366	 0.134491473436356 
2367	 0.134596034884453 
2368	 0.134705200791359 
2369	 0.134777620434761 
2370	 0.134759321808815 
2371	 0.134702235460281 
2372	 0.134590268135071 
2373	 0.134287446737289 
2374	 0.134223371744156 
2375	 0.134192541241646 
2376	 0.134199500083923 
2377	 0.13457578420639 
2378	 0.134389579296112 
2379	 0.133733779191971 
2380	 0.133682519197464 
2381	 0.133553087711334 
2382	 0.133498027920723 
2383	 0.134091317653656 
2384	 0.134126156568527 
2385	 0.133729875087738 
2386	 0.13354817032814 
2387	 0.13332761824131 
2388	 0.133127346634865 
2389	 0.13284669816494 
2390	 0.132713973522186 
2391	 0.132760927081108 
2392	 0.13263501226902 
2393	 0.132514730095863 
2394	 0.13240759074688 
2395	 0.132195919752121 
2396	 0.132042661309242 
2397	 0.131883293390274 
2398	 0.131802022457123 
2399	 0.131871297955513 
2400	 0.131651729345322 
2401	 0.131517842411995 
2402	 0.131132066249847 
2403	 0.130261540412903 
2404	 0.129734516143799 
2405	 0.129193931818008 
2406	 0.128723040223122 
2407	 0.128647059202194 
2408	 0.127964988350868 
2409	 0.126736834645271 
2410	 0.126206248998642 
2411	 0.125806003808975 
2412	 0.12515464425087 
2413	 0.124984242022038 
2414	 0.12431637942791 
2415	 0.122915148735046 
2416	 0.121988795697689 
2417	 0.121277168393135 
2418	 0.120571821928024 
2419	 0.119755543768406 
2420	 0.119243755936623 
2421	 0.119075022637844 
2422	 0.11860366165638 
2423	 0.118196912109852 
2424	 0.117825083434582 
2425	 0.117516167461872 
2426	 0.116690501570702 
2427	 0.11546116322279 
2428	 0.114790558815002 
2429	 0.113705761730671 
2430	 0.113410294055939 
2431	 0.114307045936584 
2432	 0.114224225282669 
2433	 0.113864414393902 
2434	 0.113558150827885 
2435	 0.112811394035816 
2436	 0.112553089857101 
2437	 0.112566486001015 
2438	 0.112678669393063 
2439	 0.112930685281754 
2440	 0.113316752016544 
2441	 0.114332430064678 
2442	 0.114119283854961 
2443	 0.113027460873127 
2444	 0.113112553954124 
2445	 0.112950749695301 
2446	 0.113157965242863 
2447	 0.114670388400555 
2448	 0.1151332706213 
2449	 0.114805765450001 
2450	 0.114779710769653 
2451	 0.11488588899374 
2452	 0.114830128848553 
2453	 0.114403925836086 
2454	 0.114561557769775 
2455	 0.115004777908325 
2456	 0.115983262658119 
2457	 0.116541832685471 
2458	 0.116350255906582 
2459	 0.116255313158035 
2460	 0.116258636116982 
2461	 0.116446778178215 
2462	 0.117034584283829 
2463	 0.117574915289879 
2464	 0.117714919149876 
2465	 0.11799830943346 
2466	 0.118691131472588 
2467	 0.119097858667374 
2468	 0.119148455560207 
2469	 0.119429916143417 
2470	 0.11995841562748 
2471	 0.1201092004776 
2472	 0.119811020791531 
2473	 0.120081670582294 
2474	 0.120657868683338 
2475	 0.120795428752899 
2476	 0.121313586831093 
2477	 0.121483638882637 
2478	 0.120646126568317 
2479	 0.120455153286457 
2480	 0.120502427220345 
2481	 0.120820887386799 
2482	 0.121894635260105 
2483	 0.122167013585567 
2484	 0.122149728238583 
2485	 0.122314557433128 
2486	 0.121860966086388 
2487	 0.121925972402096 
2488	 0.122915707528591 
2489	 0.122942827641964 
2490	 0.122022993862629 
2491	 0.122292749583721 
2492	 0.122806206345558 
2493	 0.123305439949036 
2494	 0.125173643231392 
2495	 0.125353410840034 
2496	 0.123833194375038 
2497	 0.124016627669334 
2498	 0.124435074627399 
2499	 0.124811917543411 
2500	 0.126496985554695 
