
Text conversion of header file \A_MEDIDAS\PROJETOS\BRASIL\BLOCO GAVIAO\JACOBINA\CANIF27\sco\CANIF27_029.70_00003.asd.ref
 -------------------------------------------------------------
                                                                                                                                                            
The instrument number was  16586/1
New ASD spectrum file: Program version = 6.00 file version = 1.00
Spectrum saved: 10/16/2018 at 10:18:45
VNIR integration time : 34
VNIR channel 1 wavelength = 350 wavelength step = 1
There were 50 samples per data value
xmin = 350 xmax= 2500
ymin= 0 ymax= 1.25
The instrument digitizes spectral values to 16 bits
SWIR1 gain was 203 offset was 2094
SWIR2 gain was 499 offset was 2264
Join between VNIR and SWIR1 was 1000 nm
Join between SWIR1 and SWIR2 was 1830 nm
Absolute Reflectance is Enabled
The Absolute Reflectance File is abs165861.ref
VNIR dark signal subtracted
50 dark measurements taken Tue Oct 16 10:13:56 2018
DCC value was 0
Data is compared to a white reference:
60 white reference measurements taken Tue Oct 16 10:14:04 2018
There was no foreoptic attached
Spectrum file is reflectance data
GPS-Latitude is S0
GPS-Longitude is E0
GPS-Altitude is 0
GPS-UTC is Wed Dec 31 17:00:00 1969

Smart Detector
Serial#  0
Signal (A)  0.000E00
Dark (A)  0.000E00
Ref (A)  0.000E00
Status  0 - Uninitialized
Gain  E-4
Averaging  0
Temp (C)  0.0
Humid (%)  0.0

Reflectance Absolute
Wavelength	CANIF27_29.70_00003.asd.ref
350	 0.159704387187958 
351	 0.154484376311302 
352	 0.159441381692886 
353	 0.169011458754539 
354	 0.172887235879898 
355	 0.154484555125237 
356	 0.154963761568069 
357	 0.165082231163979 
358	 0.164642125368118 
359	 0.167701289057732 
360	 0.167429834604263 
361	 0.164192020893097 
362	 0.163441359996796 
363	 0.167113035917282 
364	 0.17269729077816 
365	 0.174498051404953 
366	 0.16275729238987 
367	 0.160042881965637 
368	 0.165145128965378 
369	 0.170730590820313 
370	 0.17089281976223 
371	 0.167225405573845 
372	 0.165818274021149 
373	 0.171810269355774 
374	 0.172096505761147 
375	 0.171160683035851 
376	 0.170835331082344 
377	 0.168869137763977 
378	 0.169698461890221 
379	 0.172064065933228 
380	 0.173473253846169 
381	 0.170638009905815 
382	 0.171428367495537 
383	 0.17447754740715 
384	 0.175242304801941 
385	 0.172526955604553 
386	 0.170866534113884 
387	 0.171640411019325 
388	 0.173027142882347 
389	 0.173695862293243 
390	 0.173456951975822 
391	 0.172978207468987 
392	 0.174278795719147 
393	 0.17426073551178 
394	 0.173465549945831 
395	 0.173316180706024 
396	 0.173280462622643 
397	 0.173110798001289 
398	 0.173098564147949 
399	 0.173783630132675 
400	 0.173474341630936 
401	 0.173127368092537 
402	 0.173494070768356 
403	 0.174375891685486 
404	 0.174227252602577 
405	 0.173657581210136 
406	 0.173658773303032 
407	 0.173845037817955 
408	 0.174167394638062 
409	 0.174138084053993 
410	 0.173236817121506 
411	 0.173692882061005 
412	 0.174175232648849 
413	 0.173957496881485 
414	 0.173968642950058 
415	 0.173873081803322 
416	 0.173857167363167 
417	 0.174095049500465 
418	 0.174320757389069 
419	 0.174189418554306 
420	 0.173825725913048 
421	 0.173639252781868 
422	 0.173688337206841 
423	 0.173885613679886 
424	 0.173997193574905 
425	 0.173588961362839 
426	 0.173622563481331 
427	 0.173811167478561 
428	 0.173776924610138 
429	 0.174125358462334 
430	 0.174209073185921 
431	 0.173809587955475 
432	 0.173140123486519 
433	 0.173616841435432 
434	 0.174043342471123 
435	 0.173829168081284 
436	 0.173736855387688 
437	 0.173601254820824 
438	 0.173840135335922 
439	 0.174524903297424 
440	 0.173985928297043 
441	 0.173684924840927 
442	 0.174013301730156 
443	 0.174501046538353 
444	 0.173954650759697 
445	 0.173553183674812 
446	 0.173846021294594 
447	 0.17388117313385 
448	 0.174057692289352 
449	 0.174084976315498 
450	 0.173748925328255 
451	 0.173878207802773 
452	 0.173945754766464 
453	 0.173905298113823 
454	 0.174056082963943 
455	 0.173946887254715 
456	 0.173823073506355 
457	 0.173791632056236 
458	 0.173476904630661 
459	 0.173410877585411 
460	 0.173511803150177 
461	 0.173539534211159 
462	 0.173571363091469 
463	 0.173658162355423 
464	 0.17364364862442 
465	 0.173237279057503 
466	 0.173057571053505 
467	 0.173105552792549 
468	 0.173235327005386 
469	 0.17324498295784 
470	 0.173284381628036 
471	 0.173291251063347 
472	 0.173176839947701 
473	 0.173208296298981 
474	 0.173133939504623 
475	 0.172968059778214 
476	 0.173033758997917 
477	 0.173145666718483 
478	 0.173096433281898 
479	 0.172850131988525 
480	 0.172841534018517 
481	 0.172832250595093 
482	 0.17277629673481 
483	 0.172730177640915 
484	 0.172787815332413 
485	 0.172729074954987 
486	 0.172587856650352 
487	 0.172768354415894 
488	 0.17278565466404 
489	 0.17271663248539 
490	 0.172720804810524 
491	 0.172714903950691 
492	 0.172704353928566 
493	 0.172685086727142 
494	 0.172647938132286 
495	 0.172565951943398 
496	 0.172651708126068 
497	 0.172826826572418 
498	 0.172467201948166 
499	 0.172376707196236 
500	 0.172442272305489 
501	 0.172354236245155 
502	 0.172266766428947 
503	 0.172240018844604 
504	 0.172222688794136 
505	 0.172092780470848 
506	 0.172060921788216 
507	 0.171959266066551 
508	 0.171743988990784 
509	 0.171765029430389 
510	 0.171822264790535 
511	 0.171769455075264 
512	 0.171554997563362 
513	 0.171552255749702 
514	 0.171494036912918 
515	 0.171315550804138 
516	 0.171196445822716 
517	 0.171188607811928 
518	 0.171163484454155 
519	 0.171041205525398 
520	 0.170974671840668 
521	 0.170895650982857 
522	 0.170814529061317 
523	 0.170768558979034 
524	 0.170715555548668 
525	 0.170641914010048 
526	 0.170584499835968 
527	 0.170641794800758 
528	 0.170537933707237 
529	 0.170392453670502 
530	 0.170340374112129 
531	 0.170203149318695 
532	 0.170112699270248 
533	 0.170060619711876 
534	 0.169953837990761 
535	 0.169822484254837 
536	 0.169732242822647 
537	 0.169683441519737 
538	 0.169559925794601 
539	 0.169402852654457 
540	 0.169306695461273 
541	 0.16931739449501 
542	 0.169197112321854 
543	 0.169027864933014 
544	 0.168909907341003 
545	 0.168925553560257 
546	 0.168792456388474 
547	 0.168677270412445 
548	 0.16867059469223 
549	 0.16851632297039 
550	 0.168417796492577 
551	 0.168332144618034 
552	 0.16815759241581 
553	 0.168026089668274 
554	 0.167964652180672 
555	 0.16793891787529 
556	 0.167860612273216 
557	 0.167773604393005 
558	 0.167717576026917 
559	 0.167686223983765 
560	 0.167544201016426 
561	 0.167404264211655 
562	 0.167315632104874 
563	 0.167284652590752 
564	 0.167275696992874 
565	 0.167214840650558 
566	 0.167115435004234 
567	 0.167116075754166 
568	 0.167067170143127 
569	 0.166970074176788 
570	 0.166893050074577 
571	 0.16699156165123 
572	 0.167094707489014 
573	 0.167082324624062 
574	 0.166908979415894 
575	 0.166846945881844 
576	 0.166832253336906 
577	 0.166809841990471 
578	 0.166847229003906 
579	 0.166753679513931 
580	 0.166599988937378 
581	 0.166518881917 
582	 0.166483923792839 
583	 0.166443556547165 
584	 0.166395112872124 
585	 0.166379436850548 
586	 0.16640593111515 
587	 0.166397050023079 
588	 0.166322037577629 
589	 0.166298791766167 
590	 0.166181847453117 
591	 0.166004925966263 
592	 0.165861263871193 
593	 0.165738448500633 
594	 0.165631294250488 
595	 0.1655343323946 
596	 0.165441334247589 
597	 0.165335804224014 
598	 0.165229260921478 
599	 0.165135681629181 
600	 0.165056779980659 
601	 0.165014415979385 
602	 0.164976015686989 
603	 0.164899259805679 
604	 0.164897054433823 
605	 0.164883852005005 
606	 0.164793118834496 
607	 0.164607599377632 
608	 0.16448962688446 
609	 0.164418295025826 
610	 0.164327293634415 
611	 0.164165899157524 
612	 0.164036318659782 
613	 0.16395677626133 
614	 0.16389337182045 
615	 0.163859575986862 
616	 0.16381624341011 
617	 0.163741454482079 
618	 0.163645699620247 
619	 0.16357484459877 
620	 0.163510963320732 
621	 0.163427010178566 
622	 0.163340881466866 
623	 0.163228079676628 
624	 0.163123995065689 
625	 0.16309155523777 
626	 0.162997901439667 
627	 0.162911742925644 
628	 0.162871718406677 
629	 0.1628158390522 
630	 0.162787064909935 
631	 0.16275742650032 
632	 0.162693500518799 
633	 0.162628367543221 
634	 0.162611052393913 
635	 0.16261313855648 
636	 0.162556767463684 
637	 0.162553653120995 
638	 0.162537544965744 
639	 0.162486135959625 
640	 0.162510395050049 
641	 0.162554636597633 
642	 0.162568137049675 
643	 0.162520661950111 
644	 0.162469208240509 
645	 0.162417337298393 
646	 0.162372425198555 
647	 0.162345066666603 
648	 0.16232904791832 
649	 0.162346079945564 
650	 0.162378951907158 
651	 0.162321493029594 
652	 0.1623375415802 
653	 0.162408366799355 
654	 0.162457868456841 
655	 0.162467762827873 
656	 0.162425205111504 
657	 0.162397116422653 
658	 0.162493467330933 
659	 0.16254523396492 
660	 0.162544116377831 
661	 0.162527605891228 
662	 0.162566378712654 
663	 0.162632972002029 
664	 0.162706360220909 
665	 0.16275443136692 
666	 0.162688508629799 
667	 0.162690326571465 
668	 0.162786260247231 
669	 0.162874922156334 
670	 0.162921577692032 
671	 0.162939682602882 
672	 0.16295213997364 
673	 0.162979081273079 
674	 0.163050532341003 
675	 0.163121566176414 
676	 0.163136184215546 
677	 0.163088664412498 
678	 0.163052916526794 
679	 0.163038119673729 
680	 0.16301192343235 
681	 0.163013681769371 
682	 0.162975862622261 
683	 0.162902161478996 
684	 0.162916198372841 
685	 0.162883907556534 
686	 0.162839576601982 
687	 0.162846148014069 
688	 0.162915304303169 
689	 0.162975400686264 
690	 0.162988543510437 
691	 0.162954494357109 
692	 0.162963315844536 
693	 0.163029998540878 
694	 0.163128614425659 
695	 0.163197368383408 
696	 0.163217604160309 
697	 0.163275182247162 
698	 0.163406357169151 
699	 0.163454502820969 
700	 0.163580253720284 
701	 0.163711369037628 
702	 0.163729056715965 
703	 0.163814663887024 
704	 0.163907617330551 
705	 0.163977041840553 
706	 0.16403229534626 
707	 0.164074212312698 
708	 0.16411654651165 
709	 0.164177030324936 
710	 0.164280086755753 
711	 0.164350017905235 
712	 0.164393171668053 
713	 0.164431512355804 
714	 0.164431005716324 
715	 0.164461895823479 
716	 0.164530396461487 
717	 0.164593666791916 
718	 0.16457611322403 
719	 0.164603382349014 
720	 0.164690122008324 
721	 0.164690643548965 
722	 0.164680376648903 
723	 0.164702817797661 
724	 0.164758160710335 
725	 0.164754971861839 
726	 0.164743199944496 
727	 0.164751783013344 
728	 0.164793998003006 
729	 0.164863288402557 
730	 0.164797827601433 
731	 0.164677128195763 
732	 0.164744019508362 
733	 0.164803460240364 
734	 0.164831086993217 
735	 0.164823517203331 
736	 0.164773091673851 
737	 0.164804458618164 
738	 0.164794951677322 
739	 0.164672821760178 
740	 0.164699375629425 
741	 0.164707854390144 
742	 0.164689287543297 
743	 0.164697080850601 
744	 0.164726510643959 
745	 0.164706751704216 
746	 0.164661079645157 
747	 0.164680510759354 
748	 0.164640203118324 
749	 0.164609208703041 
750	 0.164612963795662 
751	 0.164570018649101 
752	 0.164513424038887 
753	 0.164472445845604 
754	 0.164457753300667 
755	 0.164431899785995 
756	 0.164399102330208 
757	 0.164333418011665 
758	 0.164224043488503 
759	 0.164184227585793 
760	 0.164167895913124 
761	 0.164142236113548 
762	 0.16409669816494 
763	 0.164064466953278 
764	 0.164040222764015 
765	 0.163999870419502 
766	 0.163905143737793 
767	 0.163802161812782 
768	 0.16370302438736 
769	 0.163617819547653 
770	 0.163570895791054 
771	 0.163534343242645 
772	 0.163483187556267 
773	 0.163407176733017 
774	 0.163342624902725 
775	 0.163291767239571 
776	 0.163230746984482 
777	 0.16313411295414 
778	 0.16306184232235 
779	 0.162988170981407 
780	 0.162904977798462 
781	 0.162826627492905 
782	 0.162757515907288 
783	 0.162656366825104 
784	 0.162522628903389 
785	 0.162422686815262 
786	 0.16233429312706 
787	 0.162280380725861 
788	 0.162242010235786 
789	 0.162074849009514 
790	 0.161927342414856 
791	 0.161853134632111 
792	 0.161828219890594 
793	 0.161684155464172 
794	 0.161476358771324 
795	 0.161345049738884 
796	 0.161397859454155 
797	 0.161335840821266 
798	 0.161159425973892 
799	 0.160968750715256 
800	 0.160897821187973 
801	 0.160776033997536 
802	 0.160644084215164 
803	 0.160549029707909 
804	 0.160504683852196 
805	 0.160354569554329 
806	 0.160215392708778 
807	 0.160153359174728 
808	 0.160051882266998 
809	 0.15993969142437 
810	 0.159813404083252 
811	 0.159673020243645 
812	 0.159542694687843 
813	 0.159400999546051 
814	 0.159293711185455 
815	 0.159239500761032 
816	 0.159072071313858 
817	 0.158915758132935 
818	 0.158791676163673 
819	 0.158671393990517 
820	 0.15858219563961 
821	 0.158447027206421 
822	 0.158298686146736 
823	 0.158228397369385 
824	 0.158145397901535 
825	 0.158026367425919 
826	 0.157872676849365 
827	 0.157711505889893 
828	 0.157642707228661 
829	 0.157570138573647 
830	 0.157440960407257 
831	 0.157295703887939 
832	 0.157184839248657 
833	 0.157099291682243 
834	 0.156988337635994 
835	 0.156764551997185 
836	 0.156687542796135 
837	 0.156628578901291 
838	 0.156481817364693 
839	 0.156388998031616 
840	 0.15621817111969 
841	 0.156084626913071 
842	 0.156065478920937 
843	 0.155953049659729 
844	 0.155850604176521 
845	 0.155751019716263 
846	 0.155639588832855 
847	 0.155601352453232 
848	 0.155489668250084 
849	 0.155320197343826 
850	 0.155182734131813 
851	 0.155154958367348 
852	 0.155137270689011 
853	 0.155082032084465 
854	 0.154981344938278 
855	 0.154855623841286 
856	 0.154706537723541 
857	 0.154582113027573 
858	 0.154534727334976 
859	 0.154504358768463 
860	 0.154476135969162 
861	 0.154413491487503 
862	 0.154288321733475 
863	 0.154202535748482 
864	 0.154116943478584 
865	 0.154023975133896 
866	 0.153949826955795 
867	 0.153928890824318 
868	 0.153858467936516 
869	 0.153746917843819 
870	 0.153694376349449 
871	 0.153683990240097 
872	 0.153643786907196 
873	 0.153553828597069 
874	 0.153448358178139 
875	 0.153325125575066 
876	 0.153270050883293 
877	 0.153281092643738 
878	 0.153264597058296 
879	 0.153166934847832 
880	 0.153042823076248 
881	 0.15295085310936 
882	 0.152920946478844 
883	 0.152860775589943 
884	 0.152822434902191 
885	 0.152813091874123 
886	 0.152778878808022 
887	 0.152693778276443 
888	 0.152646690607071 
889	 0.152634665369987 
890	 0.152562767267227 
891	 0.152485832571983 
892	 0.152425587177277 
893	 0.1523826867342 
894	 0.152342930436134 
895	 0.152324602007866 
896	 0.152290537953377 
897	 0.152251750230789 
898	 0.152255952358246 
899	 0.15224315226078 
900	 0.152185618877411 
901	 0.152118057012558 
902	 0.15211184322834 
903	 0.152147203683853 
904	 0.15207602083683 
905	 0.151970565319061 
906	 0.152026265859604 
907	 0.152022629976273 
908	 0.152015626430511 
909	 0.152012050151825 
910	 0.151979118585587 
911	 0.15194608271122 
912	 0.151920303702354 
913	 0.151906326413155 
914	 0.15189953148365 
915	 0.151861235499382 
916	 0.151830539107323 
917	 0.151843190193176 
918	 0.151906877756119 
919	 0.151954680681229 
920	 0.15192286670208 
921	 0.151888325810432 
922	 0.151928469538689 
923	 0.151895001530647 
924	 0.151875108480453 
925	 0.151898309588432 
926	 0.151958420872688 
927	 0.152022644877434 
928	 0.152001932263374 
929	 0.151995822787285 
930	 0.152055010199547 
931	 0.152005225419998 
932	 0.152009010314941 
933	 0.152068287134171 
934	 0.152125552296638 
935	 0.152106136083603 
936	 0.152056202292442 
937	 0.152094691991806 
938	 0.152194678783417 
939	 0.152163565158844 
940	 0.152146816253662 
941	 0.152165904641151 
942	 0.152220696210861 
943	 0.152290031313896 
944	 0.152255997061729 
945	 0.152252092957497 
946	 0.152279585599899 
947	 0.152254790067673 
948	 0.152229830622673 
949	 0.152198970317841 
950	 0.152138888835907 
951	 0.152059137821198 
952	 0.152103126049042 
953	 0.15212482213974 
954	 0.152113899588585 
955	 0.152084156870842 
956	 0.151992812752724 
957	 0.15192286670208 
958	 0.151959419250488 
959	 0.152045994997025 
960	 0.151961520314217 
961	 0.151980876922607 
962	 0.152004227042198 
963	 0.151989564299583 
964	 0.152013212442398 
965	 0.152119979262352 
966	 0.152162820100784 
967	 0.152127727866173 
968	 0.152104139328003 
969	 0.152153268456459 
970	 0.152254775166512 
971	 0.152342915534973 
972	 0.152372390031815 
973	 0.152394980192184 
974	 0.152391329407692 
975	 0.152435213327408 
976	 0.152489826083183 
977	 0.152364641427994 
978	 0.152478009462357 
979	 0.152593910694122 
980	 0.152584388852119 
981	 0.152533963322639 
982	 0.152491047978401 
983	 0.152488768100739 
984	 0.152509987354279 
985	 0.152505367994308 
986	 0.152412757277489 
987	 0.152367487549782 
988	 0.152418226003647 
989	 0.152489334344864 
990	 0.152380496263504 
991	 0.152394220232964 
992	 0.152400806546211 
993	 0.152387678623199 
994	 0.152484431862831 
995	 0.152441874146461 
996	 0.15238855779171 
997	 0.152327105402946 
998	 0.152229711413383 
999	 0.152258768677711 
1000	 0.152195736765862 
1001	 0.15168970823288 
1002	 0.15164253115654 
1003	 0.151607751846313 
1004	 0.151567578315735 
1005	 0.151451200246811 
1006	 0.151392057538033 
1007	 0.151434764266014 
1008	 0.151370823383331 
1009	 0.151339471340179 
1010	 0.151375114917755 
1011	 0.151308536529541 
1012	 0.151135012507439 
1013	 0.151073917746544 
1014	 0.151034519076347 
1015	 0.150978565216064 
1016	 0.15097713470459 
1017	 0.150916218757629 
1018	 0.150911599397659 
1019	 0.150906130671501 
1020	 0.150885537266731 
1021	 0.150984779000282 
1022	 0.150977179408073 
1023	 0.150843217968941 
1024	 0.15077468752861 
1025	 0.150717243552208 
1026	 0.150610849261284 
1027	 0.150485128164291 
1028	 0.15040211379528 
1029	 0.150271758437157 
1030	 0.150226011872292 
1031	 0.150282576680183 
1032	 0.150236502289772 
1033	 0.150213569402695 
1034	 0.150160506367683 
1035	 0.150035604834557 
1036	 0.149995818734169 
1037	 0.149905666708946 
1038	 0.149771526455879 
1039	 0.149722889065742 
1040	 0.149730622768402 
1041	 0.149697676301003 
1042	 0.149709716439247 
1043	 0.149676725268364 
1044	 0.149616032838821 
1045	 0.149518400430679 
1046	 0.149383351206779 
1047	 0.149362564086914 
1048	 0.149378105998039 
1049	 0.149285152554512 
1050	 0.149295657873154 
1051	 0.14934715628624 
1052	 0.149293974041939 
1053	 0.149298712611198 
1054	 0.149224400520325 
1055	 0.149030402302742 
1056	 0.148938775062561 
1057	 0.148875117301941 
1058	 0.148759871721268 
1059	 0.148741528391838 
1060	 0.148724064230919 
1061	 0.148669570684433 
1062	 0.148640543222427 
1063	 0.148581206798553 
1064	 0.148506879806519 
1065	 0.148426219820976 
1066	 0.148342043161392 
1067	 0.148245260119438 
1068	 0.148233383893967 
1069	 0.148193866014481 
1070	 0.148164957761765 
1071	 0.148095294833183 
1072	 0.148022755980492 
1073	 0.147880330681801 
1074	 0.147843152284622 
1075	 0.147862702608109 
1076	 0.147842571139336 
1077	 0.147801965475082 
1078	 0.147627517580986 
1079	 0.147421509027481 
1080	 0.147384464740753 
1081	 0.147462368011475 
1082	 0.147513151168823 
1083	 0.147535815834999 
1084	 0.147518008947372 
1085	 0.147397726774216 
1086	 0.147283419966698 
1087	 0.147149741649628 
1088	 0.147053346037865 
1089	 0.146935522556305 
1090	 0.146819397807121 
1091	 0.146785691380501 
1092	 0.14676496386528 
1093	 0.146688744425774 
1094	 0.146700084209442 
1095	 0.146643042564392 
1096	 0.146516069769859 
1097	 0.146478667855263 
1098	 0.14639014005661 
1099	 0.146303787827492 
1100	 0.146237462759018 
1101	 0.14617283642292 
1102	 0.146082073450089 
1103	 0.146040394902229 
1104	 0.146052956581116 
1105	 0.146093174815178 
1106	 0.146081522107124 
1107	 0.145984441041946 
1108	 0.145879507064819 
1109	 0.145771130919456 
1110	 0.145660236477852 
1111	 0.145631924271584 
1112	 0.145642429590225 
1113	 0.145609512925148 
1114	 0.145594447851181 
1115	 0.14559268951416 
1116	 0.145541802048683 
1117	 0.145473822951317 
1118	 0.145377218723297 
1119	 0.145319238305092 
1120	 0.145272523164749 
1121	 0.145204454660416 
1122	 0.14519490301609 
1123	 0.145218059420586 
1124	 0.145206034183502 
1125	 0.145194366574287 
1126	 0.145145386457443 
1127	 0.145070627331734 
1128	 0.145019918680191 
1129	 0.144967272877693 
1130	 0.144950538873672 
1131	 0.144966199994087 
1132	 0.144942477345467 
1133	 0.144903644919395 
1134	 0.144882693886757 
1135	 0.144872292876244 
1136	 0.144834771752357 
1137	 0.144797921180725 
1138	 0.144790589809418 
1139	 0.144729867577553 
1140	 0.144664525985718 
1141	 0.144619509577751 
1142	 0.144527599215508 
1143	 0.144480958580971 
1144	 0.144473120570183 
1145	 0.144457340240479 
1146	 0.144467756152153 
1147	 0.144483000040054 
1148	 0.144475057721138 
1149	 0.14444887638092 
1150	 0.144417151808739 
1151	 0.144363701343536 
1152	 0.144277364015579 
1153	 0.144209995865822 
1154	 0.144130513072014 
1155	 0.144046187400818 
1156	 0.144066393375397 
1157	 0.144088670611382 
1158	 0.144103437662125 
1159	 0.144122213125229 
1160	 0.144043266773224 
1161	 0.143952593207359 
1162	 0.14392127096653 
1163	 0.14391764998436 
1164	 0.143909558653831 
1165	 0.143882691860199 
1166	 0.143861904740334 
1167	 0.143814951181412 
1168	 0.143762648105621 
1169	 0.143714472651482 
1170	 0.143686607480049 
1171	 0.143627002835274 
1172	 0.143589213490486 
1173	 0.143564000725746 
1174	 0.143540531396866 
1175	 0.143507033586502 
1176	 0.143443539738655 
1177	 0.143432676792145 
1178	 0.143406763672829 
1179	 0.143339544534683 
1180	 0.14333413541317 
1181	 0.143335819244385 
1182	 0.143306717276573 
1183	 0.143279016017914 
1184	 0.143271341919899 
1185	 0.143223792314529 
1186	 0.143122732639313 
1187	 0.143092885613441 
1188	 0.143083930015564 
1189	 0.143079966306686 
1190	 0.143115699291229 
1191	 0.143101885914803 
1192	 0.14306303858757 
1193	 0.143020242452621 
1194	 0.142961278557777 
1195	 0.142939329147339 
1196	 0.14291150867939 
1197	 0.142893075942993 
1198	 0.142864212393761 
1199	 0.142807111144066 
1200	 0.142775982618332 
1201	 0.14274026453495 
1202	 0.142727866768837 
1203	 0.14276622235775 
1204	 0.142751783132553 
1205	 0.142720371484756 
1206	 0.14270256459713 
1207	 0.142668291926384 
1208	 0.142638400197029 
1209	 0.142610415816307 
1210	 0.142553091049194 
1211	 0.142509311437607 
1212	 0.142476484179497 
1213	 0.142452970147133 
1214	 0.142447993159294 
1215	 0.142454817891121 
1216	 0.142476856708527 
1217	 0.142496958374977 
1218	 0.142504990100861 
1219	 0.142474591732025 
1220	 0.142354503273964 
1221	 0.142330706119537 
1222	 0.142346575856209 
1223	 0.142332077026367 
1224	 0.142376989126205 
1225	 0.142373159527779 
1226	 0.14230540394783 
1227	 0.142266452312469 
1228	 0.142271846532822 
1229	 0.142215237021446 
1230	 0.142193704843521 
1231	 0.142161130905151 
1232	 0.142120346426964 
1233	 0.142116606235504 
1234	 0.14205826818943 
1235	 0.142010316252708 
1236	 0.141985386610031 
1237	 0.141939476132393 
1238	 0.141903415322304 
1239	 0.141892239451408 
1240	 0.141865700483322 
1241	 0.14182111620903 
1242	 0.14179065823555 
1243	 0.141763955354691 
1244	 0.141756892204285 
1245	 0.141780287027359 
1246	 0.141765132546425 
1247	 0.141744688153267 
1248	 0.141723081469536 
1249	 0.141695827245712 
1250	 0.141627907752991 
1251	 0.141624927520752 
1252	 0.141653090715408 
1253	 0.141607657074928 
1254	 0.141581237316132 
1255	 0.141569122672081 
1256	 0.141532689332962 
1257	 0.141519233584404 
1258	 0.141516044735909 
1259	 0.141481339931488 
1260	 0.141399994492531 
1261	 0.141361445188522 
1262	 0.141319543123245 
1263	 0.141299530863762 
1264	 0.141332283616066 
1265	 0.14131923019886 
1266	 0.141294002532959 
1267	 0.141261622309685 
1268	 0.141194328665733 
1269	 0.141139626502991 
1270	 0.141075864434242 
1271	 0.141048341989517 
1272	 0.141005054116249 
1273	 0.140996441245079 
1274	 0.140992671251297 
1275	 0.140925720334053 
1276	 0.140871897339821 
1277	 0.140827000141144 
1278	 0.140788912773132 
1279	 0.140806168317795 
1280	 0.140779331326485 
1281	 0.140736639499664 
1282	 0.140718892216682 
1283	 0.140697032213211 
1284	 0.140660494565964 
1285	 0.140646681189537 
1286	 0.140627890825272 
1287	 0.140573725104332 
1288	 0.140538766980171 
1289	 0.140539944171906 
1290	 0.140511587262154 
1291	 0.140446230769157 
1292	 0.140424236655235 
1293	 0.140400871634483 
1294	 0.140357941389084 
1295	 0.140343397855759 
1296	 0.140323996543884 
1297	 0.140308976173401 
1298	 0.140288770198822 
1299	 0.140251621603966 
1300	 0.140223622322083 
1301	 0.140179589390755 
1302	 0.140146687626839 
1303	 0.140108406543732 
1304	 0.140072748064995 
1305	 0.140020802617073 
1306	 0.139942407608032 
1307	 0.13990393280983 
1308	 0.139886662364006 
1309	 0.139854043722153 
1310	 0.139853492379189 
1311	 0.139812290668488 
1312	 0.13972133398056 
1313	 0.139658465981483 
1314	 0.139589309692383 
1315	 0.139541521668434 
1316	 0.139518886804581 
1317	 0.139497548341751 
1318	 0.139442145824432 
1319	 0.139364168047905 
1320	 0.13928684592247 
1321	 0.139212787151337 
1322	 0.139192596077919 
1323	 0.139196962118149 
1324	 0.139163494110107 
1325	 0.139111265540123 
1326	 0.139067485928535 
1327	 0.139001324772835 
1328	 0.138941287994385 
1329	 0.138902217149734 
1330	 0.138855248689651 
1331	 0.138777166604996 
1332	 0.138732716441154 
1333	 0.138714894652367 
1334	 0.138676166534424 
1335	 0.138637632131577 
1336	 0.138615280389786 
1337	 0.138588428497314 
1338	 0.138574123382568 
1339	 0.13858588039875 
1340	 0.138568520545959 
1341	 0.138534605503082 
1342	 0.138519823551178 
1343	 0.13847653567791 
1344	 0.13847142457962 
1345	 0.13850474357605 
1346	 0.138522624969482 
1347	 0.138502418994904 
1348	 0.13848502933979 
1349	 0.138511419296265 
1350	 0.138501882553101 
1351	 0.138489454984665 
1352	 0.138517364859581 
1353	 0.138498604297638 
1354	 0.138400629162788 
1355	 0.138379082083702 
1356	 0.13840551674366 
1357	 0.138385578989983 
1358	 0.138394355773926 
1359	 0.138350233435631 
1360	 0.138229966163635 
1361	 0.138158276677132 
1362	 0.138072311878204 
1363	 0.138024255633354 
1364	 0.138042479753494 
1365	 0.138008400797844 
1366	 0.137963280081749 
1367	 0.137911796569824 
1368	 0.137821346521378 
1369	 0.137751400470734 
1370	 0.137739926576614 
1371	 0.137715503573418 
1372	 0.137657552957535 
1373	 0.137584000825882 
1374	 0.13745890557766 
1375	 0.137321680784225 
1376	 0.137245878577232 
1377	 0.137181088328362 
1378	 0.137116819620132 
1379	 0.13705225288868 
1380	 0.136940389871597 
1381	 0.136805638670921 
1382	 0.136631593108177 
1383	 0.136437326669693 
1384	 0.136182546615601 
1385	 0.135908469557762 
1386	 0.135542139410973 
1387	 0.135139361023903 
1388	 0.1346255838871 
1389	 0.134020194411278 
1390	 0.133353546261787 
1391	 0.132611200213432 
1392	 0.131778717041016 
1393	 0.130829513072968 
1394	 0.129891097545624 
1395	 0.128842711448669 
1396	 0.127847984433174 
1397	 0.126837015151978 
1398	 0.125874772667885 
1399	 0.124909423291683 
1400	 0.124025255441666 
1401	 0.12317019701004 
1402	 0.122400410473347 
1403	 0.12172869592905 
1404	 0.121073782444 
1405	 0.120486058294773 
1406	 0.120023839175701 
1407	 0.119607552886009 
1408	 0.119209304451942 
1409	 0.11892855912447 
1410	 0.1187544465065 
1411	 0.118710473179817 
1412	 0.118740066885948 
1413	 0.119007416069508 
1414	 0.119440272450447 
1415	 0.120003722608089 
1416	 0.120788142085075 
1417	 0.121598221361637 
1418	 0.122564427554607 
1419	 0.123495116829872 
1420	 0.124530129134655 
1421	 0.125475227832794 
1422	 0.126448035240173 
1423	 0.127291530370712 
1424	 0.128075957298279 
1425	 0.128793224692345 
1426	 0.129415944218636 
1427	 0.129983380436897 
1428	 0.130492880940437 
1429	 0.130941852927208 
1430	 0.131305366754532 
1431	 0.131644934415817 
1432	 0.131950452923775 
1433	 0.132202580571175 
1434	 0.132409617304802 
1435	 0.132546976208687 
1436	 0.132693231105804 
1437	 0.132809653878212 
1438	 0.132898956537247 
1439	 0.132994875311852 
1440	 0.133050069212914 
1441	 0.133062139153481 
1442	 0.133086860179901 
1443	 0.133126571774483 
1444	 0.133154228329659 
1445	 0.133175045251846 
1446	 0.133196279406548 
1447	 0.133226990699768 
1448	 0.133227005600929 
1449	 0.133201882243156 
1450	 0.133194223046303 
1451	 0.133176431059837 
1452	 0.133164182305336 
1453	 0.133163884282112 
1454	 0.133164405822754 
1455	 0.133158013224602 
1456	 0.133153364062309 
1457	 0.133159399032593 
1458	 0.133159562945366 
1459	 0.133159413933754 
1460	 0.1331507563591 
1461	 0.133136540651321 
1462	 0.133123889565468 
1463	 0.133089765906334 
1464	 0.13308285176754 
1465	 0.133099660277367 
1466	 0.13311094045639 
1467	 0.133141905069351 
1468	 0.13314713537693 
1469	 0.133133962750435 
1470	 0.133127138018608 
1471	 0.133113130927086 
1472	 0.133094936609268 
1473	 0.133075177669525 
1474	 0.133058935403824 
1475	 0.133027747273445 
1476	 0.13302393257618 
1477	 0.13300833106041 
1478	 0.132974341511726 
1479	 0.13295516371727 
1480	 0.132953286170959 
1481	 0.13295204937458 
1482	 0.132951632142067 
1483	 0.132948756217957 
1484	 0.132906436920166 
1485	 0.132894918322563 
1486	 0.132917761802673 
1487	 0.132883727550507 
1488	 0.132857367396355 
1489	 0.132841274142265 
1490	 0.132788360118866 
1491	 0.132768362760544 
1492	 0.132759064435959 
1493	 0.132736206054688 
1494	 0.132713481783867 
1495	 0.132672369480133 
1496	 0.132605537772179 
1497	 0.132580041885376 
1498	 0.132566660642624 
1499	 0.132533609867096 
1500	 0.132528811693192 
1501	 0.132480055093765 
1502	 0.132366642355919 
1503	 0.132317379117012 
1504	 0.132298350334167 
1505	 0.13226792216301 
1506	 0.132266774773598 
1507	 0.132233619689941 
1508	 0.132165610790253 
1509	 0.13210916519165 
1510	 0.132038921117783 
1511	 0.13200968503952 
1512	 0.132015451788902 
1513	 0.131995499134064 
1514	 0.131986752152443 
1515	 0.131967455148697 
1516	 0.131922096014023 
1517	 0.131887301802635 
1518	 0.131869971752167 
1519	 0.131836026906967 
1520	 0.13178525865078 
1521	 0.131743773818016 
1522	 0.131701335310936 
1523	 0.131663620471954 
1524	 0.131637930870056 
1525	 0.13159541785717 
1526	 0.131534770131111 
1527	 0.131494179368019 
1528	 0.131457611918449 
1529	 0.131418377161026 
1530	 0.131392359733582 
1531	 0.131365478038788 
1532	 0.131320312619209 
1533	 0.131273686885834 
1534	 0.131243586540222 
1535	 0.131219983100891 
1536	 0.131196081638336 
1537	 0.131180018186569 
1538	 0.131165653467178 
1539	 0.131141051650047 
1540	 0.131109908223152 
1541	 0.131077781319618 
1542	 0.131032824516296 
1543	 0.1309814453125 
1544	 0.130956798791885 
1545	 0.130922079086304 
1546	 0.130852848291397 
1547	 0.130810543894768 
1548	 0.130782276391983 
1549	 0.130742773413658 
1550	 0.130735546350479 
1551	 0.130743578076363 
1552	 0.13071221113205 
1553	 0.130658090114594 
1554	 0.13063009083271 
1555	 0.130607888102531 
1556	 0.130594596266747 
1557	 0.130606576800346 
1558	 0.130565792322159 
1559	 0.130497634410858 
1560	 0.130447402596474 
1561	 0.130389839410782 
1562	 0.130397334694862 
1563	 0.13041478395462 
1564	 0.130386874079704 
1565	 0.13037770986557 
1566	 0.130296692252159 
1567	 0.130193889141083 
1568	 0.130162760615349 
1569	 0.130160972476006 
1570	 0.13014842569828 
1571	 0.130197778344154 
1572	 0.13018211722374 
1573	 0.130109414458275 
1574	 0.130083039402962 
1575	 0.13006317615509 
1576	 0.130052000284195 
1577	 0.130067482590675 
1578	 0.130052462220192 
1579	 0.130024701356888 
1580	 0.130000025033951 
1581	 0.129953369498253 
1582	 0.129936069250107 
1583	 0.129955306649208 
1584	 0.129929691553116 
1585	 0.129880949854851 
1586	 0.12986321747303 
1587	 0.129835590720177 
1588	 0.129803985357285 
1589	 0.129803657531738 
1590	 0.129777848720551 
1591	 0.129710301756859 
1592	 0.129683390259743 
1593	 0.129680261015892 
1594	 0.129673391580582 
1595	 0.129685416817665 
1596	 0.129668280482292 
1597	 0.129625037312508 
1598	 0.129606023430824 
1599	 0.129601284861565 
1600	 0.129573717713356 
1601	 0.129553943872452 
1602	 0.129515364766121 
1603	 0.129422098398209 
1604	 0.129395142197609 
1605	 0.129409313201904 
1606	 0.129391223192215 
1607	 0.129402548074722 
1608	 0.129372134804726 
1609	 0.129282221198082 
1610	 0.129247799515724 
1611	 0.129229709506035 
1612	 0.129208832979202 
1613	 0.129215583205223 
1614	 0.129199311137199 
1615	 0.129166036844254 
1616	 0.129137754440308 
1617	 0.12912130355835 
1618	 0.129081413149834 
1619	 0.129015028476715 
1620	 0.128978192806244 
1621	 0.128927946090698 
1622	 0.128898695111275 
1623	 0.128910973668098 
1624	 0.128897279500961 
1625	 0.128885373473167 
1626	 0.128864571452141 
1627	 0.128820970654488 
1628	 0.128799706697464 
1629	 0.128777116537094 
1630	 0.128757268190384 
1631	 0.128769263625145 
1632	 0.128750845789909 
1633	 0.12871241569519 
1634	 0.128682747483253 
1635	 0.128635957837105 
1636	 0.128610879182816 
1637	 0.128606021404266 
1638	 0.128578349947929 
1639	 0.128538131713867 
1640	 0.128518015146255 
1641	 0.128506690263748 
1642	 0.128488168120384 
1643	 0.128478422760963 
1644	 0.12846140563488 
1645	 0.128429502248764 
1646	 0.128412961959839 
1647	 0.128405436873436 
1648	 0.128395304083824 
1649	 0.128395080566406 
1650	 0.128355547785759 
1651	 0.12830363214016 
1652	 0.128274276852608 
1653	 0.128207832574844 
1654	 0.128185763955116 
1655	 0.128218814730644 
1656	 0.128194436430931 
1657	 0.128153100609779 
1658	 0.128147318959236 
1659	 0.128133445978165 
1660	 0.128120392560959 
1661	 0.128129810094833 
1662	 0.128115639090538 
1663	 0.12809045612812 
1664	 0.128056019544601 
1665	 0.12801268696785 
1666	 0.127986133098602 
1667	 0.127941653132439 
1668	 0.127948194742203 
1669	 0.12797212600708 
1670	 0.12796339392662 
1671	 0.127935290336609 
1672	 0.127873539924622 
1673	 0.127820059657097 
1674	 0.127791702747345 
1675	 0.127797156572342 
1676	 0.127820774912834 
1677	 0.127784639596939 
1678	 0.12771999835968 
1679	 0.127656891942024 
1680	 0.12761852145195 
1681	 0.12764023244381 
1682	 0.127653807401657 
1683	 0.127641633152962 
1684	 0.127622827887535 
1685	 0.127589643001556 
1686	 0.127562150359154 
1687	 0.127569496631622 
1688	 0.127585351467133 
1689	 0.127570331096649 
1690	 0.127577468752861 
1691	 0.127580061554909 
1692	 0.127522096037865 
1693	 0.12750281393528 
1694	 0.127488121390343 
1695	 0.127415254712105 
1696	 0.127382665872574 
1697	 0.1273532807827 
1698	 0.127293258905411 
1699	 0.12727364897728 
1700	 0.12727490067482 
1701	 0.127267628908157 
1702	 0.127261057496071 
1703	 0.127248585224152 
1704	 0.127227485179901 
1705	 0.127206459641457 
1706	 0.127178832888603 
1707	 0.127170115709305 
1708	 0.127174541354179 
1709	 0.127122446894646 
1710	 0.127092584967613 
1711	 0.127097964286804 
1712	 0.127044349908829 
1713	 0.127012506127357 
1714	 0.127010062336922 
1715	 0.12694251537323 
1716	 0.126882642507553 
1717	 0.126865953207016 
1718	 0.126803025603294 
1719	 0.126763492822647 
1720	 0.126773983240128 
1721	 0.126738056540489 
1722	 0.12671785056591 
1723	 0.126717194914818 
1724	 0.126677766442299 
1725	 0.126692309975624 
1726	 0.126671507954597 
1727	 0.126658901572227 
1728	 0.126691654324532 
1729	 0.12665644288063 
1730	 0.126582100987434 
1731	 0.126545950770378 
1732	 0.126485675573349 
1733	 0.126457393169403 
1734	 0.126473799347878 
1735	 0.126462623476982 
1736	 0.12644237279892 
1737	 0.12641254067421 
1738	 0.126385867595673 
1739	 0.126323476433754 
1740	 0.126222997903824 
1741	 0.126123994588852 
1742	 0.1260666847229 
1743	 0.126056104898453 
1744	 0.126083195209503 
1745	 0.126095071434975 
1746	 0.126047998666763 
1747	 0.125988930463791 
1748	 0.125959247350693 
1749	 0.125932350754738 
1750	 0.125891149044037 
1751	 0.125884294509888 
1752	 0.125842079520226 
1753	 0.125788703560829 
1754	 0.125818744301796 
1755	 0.12577597796917 
1756	 0.125715181231499 
1757	 0.125688567757607 
1758	 0.125612035393715 
1759	 0.125591099262238 
1760	 0.125573381781578 
1761	 0.125520825386047 
1762	 0.125513464212418 
1763	 0.125492498278618 
1764	 0.125461533665657 
1765	 0.125454410910606 
1766	 0.125385373830795 
1767	 0.125297039747238 
1768	 0.125252813100815 
1769	 0.125235050916672 
1770	 0.125274121761322 
1771	 0.125292122364044 
1772	 0.125261306762695 
1773	 0.125200122594833 
1774	 0.125104263424873 
1775	 0.125042662024498 
1776	 0.124997198581696 
1777	 0.125010922551155 
1778	 0.124993026256561 
1779	 0.125010177493095 
1780	 0.125003010034561 
1781	 0.125001475214958 
1782	 0.124990820884705 
1783	 0.124941743910313 
1784	 0.124895833432674 
1785	 0.124832414090633 
1786	 0.124801449477673 
1787	 0.124790772795677 
1788	 0.124791771173477 
1789	 0.124755054712296 
1790	 0.124718695878983 
1791	 0.124687910079956 
1792	 0.12460146099329 
1793	 0.124580800533295 
1794	 0.124555811285973 
1795	 0.124543525278568 
1796	 0.124583832919598 
1797	 0.124536253511906 
1798	 0.124460831284523 
1799	 0.124371767044067 
1800	 0.124296881258488 
1801	 0.12430290132761 
1802	 0.124285377562046 
1803	 0.124261416494846 
1804	 0.124178864061832 
1805	 0.124023377895355 
1806	 0.123999573290348 
1807	 0.124011963605881 
1808	 0.124034374952316 
1809	 0.124119266867638 
1810	 0.124114207923412 
1811	 0.124024085700512 
1812	 0.123996429145336 
1813	 0.123992763459682 
1814	 0.123986460268497 
1815	 0.123968906700611 
1816	 0.123908452689648 
1817	 0.123839937150478 
1818	 0.123761311173439 
1819	 0.123731799423695 
1820	 0.12374722212553 
1821	 0.123708821833134 
1822	 0.123670861124992 
1823	 0.123620688915253 
1824	 0.123543493449688 
1825	 0.123527005314827 
1826	 0.12352354824543 
1827	 0.123455941677094 
1828	 0.123395211994648 
1829	 0.123331360518932 
1830	 0.123300589621067 
1831	 0.123492352664471 
1832	 0.123451426625252 
1833	 0.123439498245716 
1834	 0.123443625867367 
1835	 0.123428411781788 
1836	 0.123472847044468 
1837	 0.123444028198719 
1838	 0.123389653861523 
1839	 0.123254753649235 
1840	 0.123073868453503 
1841	 0.122934520244598 
1842	 0.122817695140839 
1843	 0.12274918705225 
1844	 0.122719027101994 
1845	 0.122802935540676 
1846	 0.12279187887907 
1847	 0.122760355472565 
1848	 0.122737519443035 
1849	 0.122679464519024 
1850	 0.122656993567944 
1851	 0.12265557050705 
1852	 0.122619673609734 
1853	 0.122568301856518 
1854	 0.122527725994587 
1855	 0.122481659054756 
1856	 0.122400909662247 
1857	 0.12236363440752 
1858	 0.122360326349735 
1859	 0.122334726154804 
1860	 0.122311189770699 
1861	 0.122353196144104 
1862	 0.122297190129757 
1863	 0.122190706431866 
1864	 0.122104346752167 
1865	 0.121978171169758 
1866	 0.12191354483366 
1867	 0.121883168816566 
1868	 0.121904112398624 
1869	 0.121907517313957 
1870	 0.121899455785751 
1871	 0.121872313320637 
1872	 0.121778823435307 
1873	 0.121604464948177 
1874	 0.121465072035789 
1875	 0.121331289410591 
1876	 0.121191434562206 
1877	 0.121105141937733 
1878	 0.121088422834873 
1879	 0.121063508093357 
1880	 0.121026590466499 
1881	 0.121007323265076 
1882	 0.120933011174202 
1883	 0.120788134634495 
1884	 0.120577178895473 
1885	 0.120348185300827 
1886	 0.120166182518005 
1887	 0.120024211704731 
1888	 0.119873881340027 
1889	 0.11976233869791 
1890	 0.119638361036777 
1891	 0.119438171386719 
1892	 0.119212731719017 
1893	 0.119048401713371 
1894	 0.118867583572865 
1895	 0.118683621287346 
1896	 0.118532821536064 
1897	 0.118388950824738 
1898	 0.11818666011095 
1899	 0.117990665137768 
1900	 0.1177993491292 
1901	 0.117643475532532 
1902	 0.117422953248024 
1903	 0.117333337664604 
1904	 0.117288917303085 
1905	 0.117154985666275 
1906	 0.117083713412285 
1907	 0.11692601442337 
1908	 0.116750374436378 
1909	 0.116613820195198 
1910	 0.116480864584446 
1911	 0.116313949227333 
1912	 0.116272285580635 
1913	 0.116277128458023 
1914	 0.116254843771458 
1915	 0.116257652640343 
1916	 0.116212077438831 
1917	 0.116159811615944 
1918	 0.116141565144062 
1919	 0.116113759577274 
1920	 0.116094157099724 
1921	 0.116032414138317 
1922	 0.115955777466297 
1923	 0.115823969244957 
1924	 0.115794487297535 
1925	 0.115799084305763 
1926	 0.115751482546329 
1927	 0.115681774914265 
1928	 0.115664936602116 
1929	 0.115703113377094 
1930	 0.115687556564808 
1931	 0.115708947181702 
1932	 0.115735575556755 
1933	 0.115732379257679 
1934	 0.115638688206673 
1935	 0.115607708692551 
1936	 0.115635022521019 
1937	 0.115628257393837 
1938	 0.115562416613102 
1939	 0.115481771528721 
1940	 0.115411415696144 
1941	 0.115342803299427 
1942	 0.115303978323936 
1943	 0.115271106362343 
1944	 0.115231432020664 
1945	 0.115191638469696 
1946	 0.115150675177574 
1947	 0.115071274340153 
1948	 0.115081124007702 
1949	 0.11516534537077 
1950	 0.11518257111311 
1951	 0.115215547382832 
1952	 0.115183100104332 
1953	 0.115050129592419 
1954	 0.114949598908424 
1955	 0.114898130297661 
1956	 0.114899076521397 
1957	 0.114913746714592 
1958	 0.115005895495415 
1959	 0.115030169487 
1960	 0.115065723657608 
1961	 0.115027353167534 
1962	 0.114967718720436 
1963	 0.114948712289333 
1964	 0.114898361265659 
1965	 0.114899180829525 
1966	 0.114993646740913 
1967	 0.11498948931694 
1968	 0.11494966596365 
1969	 0.114883579313755 
1970	 0.114855751395226 
1971	 0.114720024168491 
1972	 0.114713273942471 
1973	 0.114830315113068 
1974	 0.114932417869568 
1975	 0.114918671548367 
1976	 0.11491634696722 
1977	 0.114906445145607 
1978	 0.114840462803841 
1979	 0.114815637469292 
1980	 0.114790201187134 
1981	 0.114795871078968 
1982	 0.11481150239706 
1983	 0.114817142486572 
1984	 0.114864647388458 
1985	 0.114895656704903 
1986	 0.114902913570404 
1987	 0.114885404706001 
1988	 0.114899471402168 
1989	 0.114892110228539 
1990	 0.114940501749516 
1991	 0.114948265254498 
1992	 0.114954724907875 
1993	 0.115053780376911 
1994	 0.115100271999836 
1995	 0.115103535354137 
1996	 0.115144565701485 
1997	 0.11520829051733 
1998	 0.115248084068298 
1999	 0.115291476249695 
2000	 0.115341618657112 
2001	 0.115330636501312 
2002	 0.115329511463642 
2003	 0.115389287471771 
2004	 0.115447543561459 
2005	 0.115456856787205 
2006	 0.115513451397419 
2007	 0.115575768053532 
2008	 0.115584306418896 
2009	 0.11565013229847 
2010	 0.115865670144558 
2011	 0.115905746817589 
2012	 0.115813948214054 
2013	 0.115810006856918 
2014	 0.115913793444633 
2015	 0.115938864648342 
2016	 0.116049192845821 
2017	 0.116267219185829 
2018	 0.116328589618206 
2019	 0.116333551704884 
2020	 0.116402313113213 
2021	 0.116519302129745 
2022	 0.116586819291115 
2023	 0.116651125252247 
2024	 0.116722956299782 
2025	 0.11676986515522 
2026	 0.11681492626667 
2027	 0.116872608661652 
2028	 0.116921290755272 
2029	 0.116864793002605 
2030	 0.116912163794041 
2031	 0.117050305008888 
2032	 0.117081448435783 
2033	 0.117142856121063 
2034	 0.117285929620266 
2035	 0.117358833551407 
2036	 0.117376618087292 
2037	 0.117385245859623 
2038	 0.11734888702631 
2039	 0.117351353168488 
2040	 0.117313966155052 
2041	 0.117339290678501 
2042	 0.117448151111603 
2043	 0.117554046213627 
2044	 0.117564238607883 
2045	 0.117575764656067 
2046	 0.11760176718235 
2047	 0.117602132260799 
2048	 0.117628291249275 
2049	 0.117710411548615 
2050	 0.117733933031559 
2051	 0.117710217833519 
2052	 0.117727138102055 
2053	 0.117769077420235 
2054	 0.117784425616264 
2055	 0.117757335305214 
2056	 0.117802508175373 
2057	 0.117900095880032 
2058	 0.117940932512283 
2059	 0.118022702634335 
2060	 0.118086814880371 
2061	 0.118015065789223 
2062	 0.117967739701271 
2063	 0.11801090836525 
2064	 0.118025697767735 
2065	 0.118013009428978 
2066	 0.118032336235046 
2067	 0.118025548756123 
2068	 0.117891773581505 
2069	 0.117901541292667 
2070	 0.118066623806953 
2071	 0.118083544075489 
2072	 0.118036814033985 
2073	 0.118078663945198 
2074	 0.118079833686352 
2075	 0.118051759898663 
2076	 0.11813622713089 
2077	 0.118210561573505 
2078	 0.11815694719553 
2079	 0.118074312806129 
2080	 0.118014588952065 
2081	 0.117915846407413 
2082	 0.117874972522259 
2083	 0.117872573435307 
2084	 0.117841720581055 
2085	 0.1178377866745 
2086	 0.117780022323132 
2087	 0.117667734622955 
2088	 0.117617070674896 
2089	 0.11757942289114 
2090	 0.117530852556229 
2091	 0.117501772940159 
2092	 0.117439866065979 
2093	 0.117358423769474 
2094	 0.117221236228943 
2095	 0.11713895201683 
2096	 0.117116369307041 
2097	 0.117053747177124 
2098	 0.117001205682755 
2099	 0.116957642138004 
2100	 0.116908848285675 
2101	 0.116822473704815 
2102	 0.116737574338913 
2103	 0.116640247404575 
2104	 0.116476975381374 
2105	 0.116380035877228 
2106	 0.116340383887291 
2107	 0.116255328059196 
2108	 0.116158299148083 
2109	 0.116100467741489 
2110	 0.116071693599224 
2111	 0.116055630147457 
2112	 0.116065703332424 
2113	 0.116064198315144 
2114	 0.116039708256721 
2115	 0.115955576300621 
2116	 0.11593733727932 
2117	 0.115952424705029 
2118	 0.115947060286999 
2119	 0.115932315587997 
2120	 0.115966074168682 
2121	 0.116027437150478 
2122	 0.116058468818665 
2123	 0.116165697574615 
2124	 0.116175852715969 
2125	 0.116064608097076 
2126	 0.116028562188148 
2127	 0.116063989698887 
2128	 0.115990251302719 
2129	 0.115960329771042 
2130	 0.116007246077061 
2131	 0.11589690297842 
2132	 0.115817964076996 
2133	 0.115810461342335 
2134	 0.115866005420685 
2135	 0.115853428840637 
2136	 0.115873895585537 
2137	 0.115873269736767 
2138	 0.115809887647629 
2139	 0.115776777267456 
2140	 0.115821205079556 
2141	 0.115781344473362 
2142	 0.115687765181065 
2143	 0.115582764148712 
2144	 0.115473173558712 
2145	 0.115253590047359 
2146	 0.115046463906765 
2147	 0.11491234600544 
2148	 0.114693060517311 
2149	 0.11447960883379 
2150	 0.114283606410027 
2151	 0.114058509469032 
2152	 0.113877266645432 
2153	 0.113794438540936 
2154	 0.113568022847176 
2155	 0.113265156745911 
2156	 0.112966947257519 
2157	 0.112592324614525 
2158	 0.112249471247196 
2159	 0.111953914165497 
2160	 0.111619830131531 
2161	 0.111208811402321 
2162	 0.11084607988596 
2163	 0.110527716577053 
2164	 0.110172808170319 
2165	 0.109752528369427 
2166	 0.109274215996265 
2167	 0.108643993735313 
2168	 0.108119614422321 
2169	 0.10762969404459 
2170	 0.107055462896824 
2171	 0.10649236291647 
2172	 0.105852119624615 
2173	 0.10517879575491 
2174	 0.10444812476635 
2175	 0.103727482259274 
2176	 0.102956220507622 
2177	 0.102207683026791 
2178	 0.10144829005003 
2179	 0.100684612989426 
2180	 9.99594107270241E-02 
2181	 0.099174365401268 
2182	 9.83484387397766E-02 
2183	 9.75293591618538E-02 
2184	 9.66782942414284E-02 
2185	 9.58142876625061E-02 
2186	 9.48941931128502E-02 
2187	 0.094033919274807 
2188	 9.32775810360909E-02 
2189	 9.25527587532997E-02 
2190	 9.19476523995399E-02 
2191	 9.13967341184616E-02 
2192	 9.08142775297165E-02 
2193	 9.02649089694023E-02 
2194	 8.98368880152702E-02 
2195	 8.94727557897568E-02 
2196	 8.91589820384979E-02 
2197	 8.89160260558128E-02 
2198	 8.87851193547249E-02 
2199	 0.08873300999403 
2200	 8.87455716729164E-02 
2201	 8.89225229620934E-02 
2202	 8.90194624662399E-02 
2203	 8.90388786792755E-02 
2204	 8.92361626029015E-02 
2205	 8.95039364695549E-02 
2206	 8.98797065019608E-02 
2207	 9.05251652002335E-02 
2208	 9.09713134169579E-02 
2209	 9.12970900535584E-02 
2210	 9.17554423213005E-02 
2211	 9.21945720911026E-02 
2212	 9.26482379436493E-02 
2213	 9.33421701192856E-02 
2214	 9.40239056944847E-02 
2215	 9.45333987474442E-02 
2216	 9.51268523931503E-02 
2217	 9.57268998026848E-02 
2218	 9.62556675076485E-02 
2219	 9.67256501317024E-02 
2220	 9.71731618046761E-02 
2221	 9.76617559790611E-02 
2222	 9.80899557471275E-02 
2223	 9.84859019517899E-02 
2224	 9.89657267928123E-02 
2225	 9.92945581674576E-02 
2226	 9.94738191366196E-02 
2227	 9.97009947896004E-02 
2228	 9.98751670122147E-02 
2229	 0.100057609379292 
2230	 0.100248545408249 
2231	 0.100380182266235 
2232	 0.10045749694109 
2233	 0.100621193647385 
2234	 0.100838199257851 
2235	 0.100932143628597 
2236	 0.101028077304363 
2237	 0.10107909142971 
2238	 0.100994542241096 
2239	 0.1009431630373 
2240	 0.10098447650671 
2241	 0.101013340055943 
2242	 0.100996948778629 
2243	 0.100854553282261 
2244	 0.10064497590065 
2245	 0.100510619580746 
2246	 0.100486226379871 
2247	 0.100509367883205 
2248	 0.100623160600662 
2249	 0.100729733705521 
2250	 0.100710436701775 
2251	 0.100763030350208 
2252	 0.10086652636528 
2253	 0.101016245782375 
2254	 0.101120263338089 
2255	 0.101243734359741 
2256	 0.101365946233273 
2257	 0.101422011852264 
2258	 0.10156861692667 
2259	 0.101826295256615 
2260	 0.102052509784698 
2261	 0.1023228764534 
2262	 0.102505281567574 
2263	 0.10258375108242 
2264	 0.102745398879051 
2265	 0.102989681065083 
2266	 0.103088013827801 
2267	 0.103102207183838 
2268	 0.103241167962551 
2269	 0.103305600583553 
2270	 0.103400051593781 
2271	 0.103621564805508 
2272	 0.103884622454643 
2273	 0.103909485042095 
2274	 0.103802844882011 
2275	 0.103673465549946 
2276	 0.103592053055763 
2277	 0.10358951985836 
2278	 0.103669300675392 
2279	 0.103686399757862 
2280	 0.103595428168774 
2281	 0.10351200401783 
2282	 0.103367529809475 
2283	 0.103274971246719 
2284	 0.103261299431324 
2285	 0.103178344666958 
2286	 0.10308726131916 
2287	 0.102928012609482 
2288	 0.10276260972023 
2289	 0.102630935609341 
2290	 0.102472856640816 
2291	 0.102309569716454 
2292	 0.102212220430374 
2293	 0.101989470422268 
2294	 0.101658813655376 
2295	 0.101416945457458 
2296	 0.101099699735641 
2297	 0.100938841700554 
2298	 0.100935518741608 
2299	 0.10081385076046 
2300	 0.100763119757175 
2301	 0.100615292787552 
2302	 0.100354328751564 
2303	 0.100096642971039 
2304	 9.97402295470238E-02 
2305	 9.95378196239471E-02 
2306	 9.94939431548119E-02 
2307	 9.92201790213585E-02 
2308	 9.88679900765419E-02 
2309	 9.85872447490692E-02 
2310	 0.09818334877491 
2311	 9.78239551186562E-02 
2312	 9.76158753037453E-02 
2313	 9.73214209079742E-02 
2314	 9.68714207410812E-02 
2315	 9.65490713715553E-02 
2316	 9.63274165987968E-02 
2317	 9.60031524300575E-02 
2318	 9.58331078290939E-02 
2319	 9.56923961639404E-02 
2320	 0.095398910343647 
2321	 0.095159575343132 
2322	 9.50408577919006E-02 
2323	 9.46888476610184E-02 
2324	 9.42538976669312E-02 
2325	 9.40208807587624E-02 
2326	 9.36423987150192E-02 
2327	 9.30941626429558E-02 
2328	 9.27025228738785E-02 
2329	 9.24568623304367E-02 
2330	 9.21185538172722E-02 
2331	 9.17138606309891E-02 
2332	 9.14261266589165E-02 
2333	 9.11507904529572E-02 
2334	 9.07613262534142E-02 
2335	 9.05093178153038E-02 
2336	 9.04432982206345E-02 
2337	 0.090216726064682 
2338	 9.00230184197426E-02 
2339	 8.99881348013878E-02 
2340	 8.97183939814568E-02 
2341	 8.93850699067116E-02 
2342	 0.089323066174984 
2343	 8.93400758504868E-02 
2344	 8.92583951354027E-02 
2345	 8.91979858279228E-02 
2346	 8.90689715743065E-02 
2347	 8.89095291495323E-02 
2348	 8.90010073781013E-02 
2349	 8.92136171460152E-02 
2350	 8.92596319317818E-02 
2351	 8.92274603247643E-02 
2352	 8.93810391426086E-02 
2353	 8.95090699195862E-02 
2354	 8.96087735891342E-02 
2355	 8.99623110890388E-02 
2356	 9.00944322347641E-02 
2357	 8.99617373943329E-02 
2358	 8.99940580129623E-02 
2359	 8.99801775813103E-02 
2360	 9.01462212204933E-02 
2361	 9.05648767948151E-02 
2362	 9.07475277781487E-02 
2363	 9.09062772989273E-02 
2364	 0.091068334877491 
2365	 9.10623297095299E-02 
2366	 9.11065563559532E-02 
2367	 9.12696868181229E-02 
2368	 9.13915857672691E-02 
2369	 9.13464426994324E-02 
2370	 0.09149319678545 
2371	 9.18779298663139E-02 
2372	 9.20263677835464E-02 
2373	 9.21967774629593E-02 
2374	 9.21832397580147E-02 
2375	 9.19088572263718E-02 
2376	 9.17626544833183E-02 
2377	 9.15301814675331E-02 
2378	 9.14131626486778E-02 
2379	 9.13254618644714E-02 
2380	 9.13754552602768E-02 
2381	 9.16411504149437E-02 
2382	 0.09169752150774 
2383	 9.17633175849915E-02 
2384	 9.17381271719933E-02 
2385	 9.14489328861237E-02 
2386	 9.14195403456688E-02 
2387	 9.14580523967743E-02 
2388	 9.16612520813942E-02 
2389	 9.22170057892799E-02 
2390	 9.24012586474419E-02 
2391	 9.25802662968636E-02 
2392	 9.24761965870857E-02 
2393	 9.19162854552269E-02 
2394	 9.17379856109619E-02 
2395	 9.15851444005966E-02 
2396	 9.15030241012573E-02 
2397	 9.16137024760246E-02 
2398	 9.15528386831284E-02 
2399	 9.15129035711288E-02 
2400	 9.14042964577675E-02 
2401	 9.12041738629341E-02 
2402	 9.09632444381714E-02 
2403	 0.090508297085762 
2404	 9.03480052947998E-02 
2405	 9.02656614780426E-02 
2406	 0.090345486998558 
2407	 9.09806787967682E-02 
2408	 9.08655151724815E-02 
2409	 9.03747230768204E-02 
2410	 8.99791717529297E-02 
2411	 8.90650674700737E-02 
2412	 8.86774808168411E-02 
2413	 8.87134522199631E-02 
2414	 0.088522382080555 
2415	 8.83390679955482E-02 
2416	 8.82090628147125E-02 
2417	 0.088004432618618 
2418	 8.78957286477089E-02 
2419	 8.80194529891014E-02 
2420	 8.79026427865028E-02 
2421	 8.77324640750885E-02 
2422	 8.75434726476669E-02 
2423	 8.71406570076942E-02 
2424	 8.69222432374954E-02 
2425	 8.67684781551361E-02 
2426	 8.65473598241806E-02 
2427	 8.63500386476517E-02 
2428	 0.086228035390377 
2429	 8.61649438738823E-02 
2430	 8.60046520829201E-02 
2431	 8.58144387602806E-02 
2432	 8.58142226934433E-02 
2433	 0.085834376513958 
2434	 8.57396647334099E-02 
2435	 8.58517363667488E-02 
2436	 8.57256874442101E-02 
2437	 8.52131396532059E-02 
2438	 8.50950255990028E-02 
2439	 0.085199199616909 
2440	 8.51048082113266E-02 
2441	 8.50078240036964E-02 
2442	 8.50520506501198E-02 
2443	 8.51286724209785E-02 
2444	 8.49858224391937E-02 
2445	 8.47055986523628E-02 
2446	 8.49517807364464E-02 
2447	 8.53389501571655E-02 
2448	 0.085362583398819 
2449	 8.59451442956924E-02 
2450	 8.56950655579567E-02 
2451	 8.42229872941971E-02 
2452	 8.41987431049347E-02 
2453	 8.46967846155167E-02 
2454	 8.54536890983582E-02 
2455	 8.60738828778267E-02 
2456	 8.57779532670975E-02 
2457	 8.54422226548195E-02 
2458	 8.50177183747292E-02 
2459	 0.084963470697403 
2460	 8.57326835393906E-02 
2461	 8.61658155918121E-02 
2462	 8.63934457302094E-02 
2463	 0.086806058883667 
2464	 8.64957273006439E-02 
2465	 8.63955691456795E-02 
2466	 8.65494981408119E-02 
2467	 8.63324180245399E-02 
2468	 8.55850279331207E-02 
2469	 8.54416191577911E-02 
2470	 8.56518819928169E-02 
2471	 8.54920670390129E-02 
2472	 8.54710042476654E-02 
2473	 8.55918973684311E-02 
2474	 8.50986689329147E-02 
2475	 8.51879343390465E-02 
2476	 8.64803045988083E-02 
2477	 8.68540927767754E-02 
2478	 0.086783729493618 
2479	 8.68121758103371E-02 
2480	 8.59769284725189E-02 
2481	 8.60981419682503E-02 
2482	 8.72469171881676E-02 
2483	 8.76367911696434E-02 
2484	 8.85032042860985E-02 
2485	 8.83904248476028E-02 
2486	 8.67599621415138E-02 
2487	 8.62885117530823E-02 
2488	 8.59395489096642E-02 
2489	 8.56735929846764E-02 
2490	 8.60135406255722E-02 
2491	 8.62507224082947E-02 
2492	 8.63417237997055E-02 
2493	 8.65281000733376E-02 
2494	 8.72604101896286E-02 
2495	 8.73336717486382E-02 
2496	 8.68880376219749E-02 
2497	 8.65850299596787E-02 
2498	 8.56941416859627E-02 
2499	 8.59948918223381E-02 
2500	 8.71979594230652E-02 
