
Text conversion of header file \A_MEDIDAS\PROJETOS\BRASIL\BLOCO GAVIAO\JACOBINA\CANIF27\sco\CANIF27_018.45_00001.asd.ref
 -------------------------------------------------------------
Falhada                                                                                                                                                     
The instrument number was  16586/1
New ASD spectrum file: Program version = 6.00 file version = 1.00
Spectrum saved: 10/16/2018 at 10:02:53
VNIR integration time : 34
VNIR channel 1 wavelength = 350 wavelength step = 1
There were 50 samples per data value
xmin = 350 xmax= 2500
ymin= 0 ymax= 1.25
The instrument digitizes spectral values to 16 bits
SWIR1 gain was 214 offset was 2097
SWIR2 gain was 513 offset was 2267
Join between VNIR and SWIR1 was 1000 nm
Join between SWIR1 and SWIR2 was 1830 nm
Absolute Reflectance is Enabled
The Absolute Reflectance File is abs165861.ref
VNIR dark signal subtracted
50 dark measurements taken Tue Oct 16 09:52:54 2018
DCC value was 0
Data is compared to a white reference:
60 white reference measurements taken Tue Oct 16 09:53:02 2018
There was no foreoptic attached
Spectrum file is reflectance data
GPS-Latitude is S0
GPS-Longitude is E0
GPS-Altitude is 0
GPS-UTC is Wed Dec 31 17:00:00 1969

Smart Detector
Serial#  0
Signal (A)  0.000E00
Dark (A)  0.000E00
Ref (A)  0.000E00
Status  0 - Uninitialized
Gain  E-4
Averaging  0
Temp (C)  0.0
Humid (%)  0.0

Reflectance Absolute
Wavelength	CANIF27_18.45_00001.asd.ref
350	 8.40725302696228E-02 
351	 8.69325250387192E-02 
352	 9.31891351938248E-02 
353	 8.91003683209419E-02 
354	 7.36182108521461E-02 
355	 7.66345709562302E-02 
356	 8.72175022959709E-02 
357	 0.091853067278862 
358	 0.082462914288044 
359	 7.40398615598679E-02 
360	 7.62055143713951E-02 
361	 8.25995057821274E-02 
362	 7.91152790188789E-02 
363	 7.92007893323898E-02 
364	 7.98761695623398E-02 
365	 7.89788663387299E-02 
366	 7.82090649008751E-02 
367	 7.60632008314133E-02 
368	 0.075882650911808 
369	 7.97391533851624E-02 
370	 8.41856524348259E-02 
371	 8.20492282509804E-02 
372	 7.59024769067764E-02 
373	 7.26414024829865E-02 
374	 7.53346532583237E-02 
375	 7.81279429793358E-02 
376	 7.87871927022934E-02 
377	 7.95473009347916E-02 
378	 7.87681415677071E-02 
379	 7.82638117671013E-02 
380	 7.86844342947006E-02 
381	 0.076226107776165 
382	 7.73033052682877E-02 
383	 7.89819732308388E-02 
384	 7.68135786056519E-02 
385	 7.80303776264191E-02 
386	 8.00431594252586E-02 
387	 8.12996104359627E-02 
388	 8.16802307963371E-02 
389	 8.02655145525932E-02 
390	 8.01129415631294E-02 
391	 8.23551788926125E-02 
392	 8.33074450492859E-02 
393	 8.22347030043602E-02 
394	 8.08744579553604E-02 
395	 8.11498388648033E-02 
396	 8.12355056405067E-02 
397	 8.16192179918289E-02 
398	 8.27942863106728E-02 
399	 8.48430246114731E-02 
400	 8.35670605301857E-02 
401	 8.21414366364479E-02 
402	 8.25969353318214E-02 
403	 8.31971988081932E-02 
404	 8.24867337942123E-02 
405	 8.22107791900635E-02 
406	 8.39467644691467E-02 
407	 8.46644565463066E-02 
408	 8.44573080539703E-02 
409	 0.08420579880476 
410	 8.50106999278069E-02 
411	 8.51221531629562E-02 
412	 8.45122635364532E-02 
413	 8.39895978569984E-02 
414	 8.53277370333672E-02 
415	 8.55592787265778E-02 
416	 8.54390561580658E-02 
417	 8.61825197935104E-02 
418	 8.68085622787476E-02 
419	 8.67651179432869E-02 
420	 8.63369181752205E-02 
421	 8.63189324736595E-02 
422	 8.70031788945198E-02 
423	 0.087773285806179 
424	 8.81095603108406E-02 
425	 8.77543315291405E-02 
426	 8.84105265140533E-02 
427	 8.90146493911743E-02 
428	 8.86457860469818E-02 
429	 8.96270126104355E-02 
430	 9.03894826769829E-02 
431	 0.09044249355793 
432	 0.090146541595459 
433	 9.05709341168404E-02 
434	 9.12580862641335E-02 
435	 0.091793492436409 
436	 0.092149518430233 
437	 9.20131355524063E-02 
438	 0.092265211045742 
439	 9.34700891375542E-02 
440	 9.39789935946465E-02 
441	 9.42367985844612E-02 
442	 9.44924876093864E-02 
443	 9.48170050978661E-02 
444	 9.51509326696396E-02 
445	 9.54599007964134E-02 
446	 9.56671535968781E-02 
447	 9.56015810370445E-02 
448	 9.55973044037819E-02 
449	 9.58071276545525E-02 
450	 9.62247997522354E-02 
451	 9.65358838438988E-02 
452	 9.65580493211746E-02 
453	 9.64981019496918E-02 
454	 9.67933163046837E-02 
455	 9.70971882343292E-02 
456	 9.72062274813652E-02 
457	 9.71666350960732E-02 
458	 9.74420607089996E-02 
459	 9.77946892380714E-02 
460	 9.80151295661926E-02 
461	 9.80183854699135E-02 
462	 9.82794463634491E-02 
463	 9.85186845064163E-02 
464	 9.86417531967163E-02 
465	 9.87545847892761E-02 
466	 9.89843904972076E-02 
467	 9.92784276604652E-02 
468	 9.95188131928444E-02 
469	 9.94888916611671E-02 
470	 9.96387451887131E-02 
471	 0.099944569170475 
472	 0.100174978375435 
473	 0.10011413693428 
474	 0.100206889212132 
475	 0.100540429353714 
476	 0.100775018334389 
477	 0.100900188088417 
478	 0.101129204034805 
479	 0.101527467370033 
480	 0.101579129695892 
481	 0.101883687078953 
482	 0.1023069024086 
483	 0.102431900799274 
484	 0.10271355509758 
485	 0.10299451649189 
486	 0.103212416172028 
487	 0.103506073355675 
488	 0.103774659335613 
489	 0.10395597666502 
490	 0.104075238108635 
491	 0.104430235922337 
492	 0.104635775089264 
493	 0.104709520936012 
494	 0.104905776679516 
495	 0.105005338788033 
496	 0.105158977210522 
497	 0.105437271296978 
498	 0.105707779526711 
499	 0.106016099452972 
500	 0.106265105307102 
501	 0.106401354074478 
502	 0.106726609170437 
503	 0.107029743492603 
504	 0.107262909412384 
505	 0.107529036700726 
506	 0.10792937874794 
507	 0.108294680714607 
508	 0.108495935797691 
509	 0.108557514846325 
510	 0.108711406588554 
511	 0.108921214938164 
512	 0.109069004654884 
513	 0.109224878251553 
514	 0.10945812612772 
515	 0.109720140695572 
516	 0.109852947294712 
517	 0.110035233199596 
518	 0.110164932906628 
519	 0.110221438109875 
520	 0.11057436466217 
521	 0.110769987106323 
522	 0.110773101449013 
523	 0.110766291618347 
524	 0.110888838768005 
525	 0.110970996320248 
526	 0.111016988754272 
527	 0.111293412744999 
528	 0.111313030123711 
529	 0.111350327730179 
530	 0.111662976443768 
531	 0.11178869754076 
532	 0.111902564764023 
533	 0.112015098333359 
534	 0.112052194774151 
535	 0.112222798168659 
536	 0.112431019544601 
537	 0.11258252710104 
538	 0.112646915018559 
539	 0.112793266773224 
540	 0.112961180508137 
541	 0.113063655793667 
542	 0.113248884677887 
543	 0.113443739712238 
544	 0.113649040460587 
545	 0.113921947777271 
546	 0.114072181284428 
547	 0.114199973642826 
548	 0.114384382963181 
549	 0.11455262452364 
550	 0.114655531942844 
551	 0.114793047308922 
552	 0.115068815648556 
553	 0.115228705108166 
554	 0.115386195480824 
555	 0.115564472973347 
556	 0.11566498875618 
557	 0.115772724151611 
558	 0.115939058363438 
559	 0.116173885762691 
560	 0.116402067244053 
561	 0.116648882627487 
562	 0.116861842572689 
563	 0.116981402039528 
564	 0.11721870303154 
565	 0.117436543107033 
566	 0.117585077881813 
567	 0.117785483598709 
568	 0.117937155067921 
569	 0.11803775280714 
570	 0.118120312690735 
571	 0.11824081838131 
572	 0.118371874094009 
573	 0.118529558181763 
574	 0.118753746151924 
575	 0.118990980088711 
576	 0.119239844381809 
577	 0.1194928586483 
578	 0.119725570082664 
579	 0.119907461106777 
580	 0.120042018592358 
581	 0.12014301866293 
582	 0.120190769433975 
583	 0.120282731950283 
584	 0.120402954518795 
585	 0.120439387857914 
586	 0.120468012988567 
587	 0.120477981865406 
588	 0.120489485561848 
589	 0.120633967220783 
590	 0.120785742998123 
591	 0.120887696743011 
592	 0.12091713398695 
593	 0.120867691934109 
594	 0.120827086269855 
595	 0.120835311710835 
596	 0.12087045609951 
597	 0.120805829763412 
598	 0.120666161179543 
599	 0.120514675974846 
600	 0.120419912040234 
601	 0.120284475386143 
602	 0.120118223130703 
603	 0.119981557130814 
604	 0.119881249964237 
605	 0.119776822626591 
606	 0.119662590324879 
607	 0.119581587612629 
608	 0.119504414498806 
609	 0.119386911392212 
610	 0.119211174547672 
611	 0.119043335318565 
612	 0.1189104616642 
613	 0.118769727647305 
614	 0.118555270135403 
615	 0.118403382599354 
616	 0.118292719125748 
617	 0.118174195289612 
618	 0.117985315620899 
619	 0.117807932198048 
620	 0.117658145725727 
621	 0.117523677647114 
622	 0.117360234260559 
623	 0.117198012769222 
624	 0.117035046219826 
625	 0.116851791739464 
626	 0.116696462035179 
627	 0.116520076990128 
628	 0.116324722766876 
629	 0.116230696439743 
630	 0.116052709519863 
631	 0.115829266607761 
632	 0.115656659007072 
633	 0.115559570491314 
634	 0.115404598414898 
635	 0.115192487835884 
636	 0.11502892524004 
637	 0.114890411496162 
638	 0.1147440969944 
639	 0.114582113921642 
640	 0.114449188113213 
641	 0.114289537072182 
642	 0.114122599363327 
643	 0.113975554704666 
644	 0.113781653344631 
645	 0.113638073205948 
646	 0.113529525697231 
647	 0.113354712724686 
648	 0.113204799592495 
649	 0.113041788339615 
650	 0.112861208617687 
651	 0.112764351069927 
652	 0.112640969455242 
653	 0.11247967928648 
654	 0.112311102449894 
655	 0.112190879881382 
656	 0.112067326903343 
657	 0.111934922635555 
658	 0.111821636557579 
659	 0.111629530787468 
660	 0.111485987901688 
661	 0.11142373085022 
662	 0.111232168972492 
663	 0.111100561916828 
664	 0.111000508069992 
665	 0.110863618552685 
666	 0.110768869519234 
667	 0.110661596059799 
668	 0.110532701015472 
669	 0.11041060090065 
670	 0.11030288785696 
671	 0.110180787742138 
672	 0.110047109425068 
673	 0.109968468546867 
674	 0.109861075878143 
675	 0.109748147428036 
676	 0.109667561948299 
677	 0.109587579965591 
678	 0.109479166567326 
679	 0.109347023069859 
680	 0.109222032129765 
681	 0.109143927693367 
682	 0.109066858887672 
683	 0.108965992927551 
684	 0.108862683176994 
685	 0.108810007572174 
686	 0.108742319047451 
687	 0.108615599572659 
688	 0.108561612665653 
689	 0.108503669500351 
690	 0.108410820364952 
691	 0.108290977776051 
692	 0.108226962387562 
693	 0.108176775276661 
694	 0.108112893998623 
695	 0.108041189610958 
696	 0.107992969453335 
697	 0.107967793941498 
698	 0.10794959962368 
699	 0.107908740639687 
700	 0.107811719179153 
701	 0.107717350125313 
702	 0.107698731124401 
703	 0.107677988708019 
704	 0.10764741897583 
705	 0.107612729072571 
706	 0.107587188482285 
707	 0.107556499540806 
708	 0.107533119618893 
709	 0.107525080442429 
710	 0.107525356113911 
711	 0.107523202896118 
712	 0.107502035796642 
713	 0.107460379600525 
714	 0.107455164194107 
715	 0.107447490096092 
716	 0.107423685491085 
717	 0.107396379113197 
718	 0.107445999979973 
719	 0.107453778386116 
720	 0.107401713728905 
721	 0.107419833540916 
722	 0.10746668279171 
723	 0.107524678111076 
724	 0.107568591833115 
725	 0.107541084289551 
726	 0.107520319521427 
727	 0.107542417943478 
728	 0.107608079910278 
729	 0.107642762362957 
730	 0.107685320079327 
731	 0.107739269733429 
732	 0.107777342200279 
733	 0.107800118625164 
734	 0.107835099101067 
735	 0.107890069484711 
736	 0.107937678694725 
737	 0.108031876385212 
738	 0.108120575547218 
739	 0.108153834939003 
740	 0.108161903917789 
741	 0.108185365796089 
742	 0.108241707086563 
743	 0.108325861394405 
744	 0.108391284942627 
745	 0.10844998806715 
746	 0.108516365289688 
747	 0.108596950769424 
748	 0.108616448938847 
749	 0.108660213649273 
750	 0.108761452138424 
751	 0.108840182423592 
752	 0.108917415142059 
753	 0.108992792665958 
754	 0.109064877033234 
755	 0.109141051769257 
756	 0.109201714396477 
757	 0.109265454113483 
758	 0.109348520636559 
759	 0.109362155199051 
760	 0.109458073973656 
761	 0.109587520360947 
762	 0.109575353562832 
763	 0.109646759927273 
764	 0.109740532934666 
765	 0.109799802303314 
766	 0.109824448823929 
767	 0.109903529286385 
768	 0.110010787844658 
769	 0.11009855568409 
770	 0.110127747058868 
771	 0.110216096043587 
772	 0.110326275229454 
773	 0.110384546220303 
774	 0.110396027565002 
775	 0.110426165163517 
776	 0.11048498749733 
777	 0.110547415912151 
778	 0.110602378845215 
779	 0.11064837872982 
780	 0.110685519874096 
781	 0.1107132807374 
782	 0.110711924731731 
783	 0.110732011497021 
784	 0.110794678330421 
785	 0.110862664878368 
786	 0.110879302024841 
787	 0.110883511602879 
788	 0.110907934606075 
789	 0.110907584428787 
790	 0.110929079353809 
791	 0.110930897295475 
792	 0.110881879925728 
793	 0.110903978347778 
794	 0.11092521250248 
795	 0.110914312303066 
796	 0.110870704054832 
797	 0.110811427235603 
798	 0.110790714621544 
799	 0.110799558460712 
800	 0.11078055202961 
801	 0.110760390758514 
802	 0.1106898188591 
803	 0.110597468912601 
804	 0.110601961612701 
805	 0.110534712672234 
806	 0.110456071794033 
807	 0.11041247099638 
808	 0.110347308218479 
809	 0.110276609659195 
810	 0.110208459198475 
811	 0.11014349013567 
812	 0.110067777335644 
813	 0.109976507723331 
814	 0.109880782663822 
815	 0.109796337783337 
816	 0.109738416969776 
817	 0.109621725976467 
818	 0.109492018818855 
819	 0.109431006014347 
820	 0.109331376850605 
821	 0.109252221882343 
822	 0.109182141721249 
823	 0.109066098928452 
824	 0.108951099216938 
825	 0.108823470771313 
826	 0.108693838119507 
827	 0.108594425022602 
828	 0.108490139245987 
829	 0.108373202383518 
830	 0.108243271708488 
831	 0.108106918632984 
832	 0.108021728694439 
833	 0.107935130596161 
834	 0.107810489833355 
835	 0.107672825455666 
836	 0.107574038207531 
837	 0.107457153499126 
838	 0.107302255928516 
839	 0.107219904661179 
840	 0.107109047472477 
841	 0.106994353234768 
842	 0.106906071305275 
843	 0.106794215738773 
844	 0.106663711369038 
845	 0.10653056204319 
846	 0.106411769986153 
847	 0.106310427188873 
848	 0.106205277144909 
849	 0.106114484369755 
850	 0.10604952275753 
851	 0.105931617319584 
852	 0.10579739511013 
853	 0.105671860277653 
854	 0.105568893253803 
855	 0.105490237474442 
856	 0.105396009981632 
857	 0.105304829776287 
858	 0.105245634913445 
859	 0.105100736021996 
860	 0.104984477162361 
861	 0.104923740029335 
862	 0.104874812066555 
863	 0.104824259877205 
864	 0.104738123714924 
865	 0.104647241532803 
866	 0.10461164265871 
867	 0.104542903602123 
868	 0.104477450251579 
869	 0.104414366185665 
870	 0.104320451617241 
871	 0.104231528937817 
872	 0.104136809706688 
873	 0.104070499539375 
874	 0.104086808860302 
875	 0.104052357375622 
876	 0.103962555527687 
877	 0.103874035179615 
878	 0.103867776691914 
879	 0.10387609899044 
880	 0.103850446641445 
881	 0.103802226483822 
882	 0.10378635674715 
883	 0.103719040751457 
884	 0.103647857904434 
885	 0.103620648384094 
886	 0.103650256991386 
887	 0.103604011237621 
888	 0.103601828217506 
889	 0.10364942997694 
890	 0.103622898459435 
891	 0.103568337857723 
892	 0.103569187223911 
893	 0.103616990149021 
894	 0.103620707988739 
895	 0.103616490960121 
896	 0.103609748184681 
897	 0.103602461516857 
898	 0.103597968816757 
899	 0.103619024157524 
900	 0.103650778532028 
901	 0.103678405284882 
902	 0.103693194687366 
903	 0.103690810501575 
904	 0.103721678256989 
905	 0.103775382041931 
906	 0.103800497949123 
907	 0.103833764791489 
908	 0.103852689266205 
909	 0.103874251246452 
910	 0.103930369019508 
911	 0.103962682187557 
912	 0.103991992771626 
913	 0.104030422866344 
914	 0.104085192084312 
915	 0.104192055761814 
916	 0.104234635829926 
917	 0.104241050779819 
918	 0.104295164346695 
919	 0.104352861642838 
920	 0.104402631521225 
921	 0.104448691010475 
922	 0.104505814611912 
923	 0.104598499834538 
924	 0.104658737778664 
925	 0.104713305830956 
926	 0.104802198708057 
927	 0.104900948703289 
928	 0.104952871799469 
929	 0.104992121458054 
930	 0.105064995586872 
931	 0.105174578726292 
932	 0.105275489389896 
933	 0.105353258550167 
934	 0.105437748134136 
935	 0.105601914227009 
936	 0.105708725750446 
937	 0.105777576565742 
938	 0.105838514864445 
939	 0.105897083878517 
940	 0.106011852622032 
941	 0.106071949005127 
942	 0.106089688837528 
943	 0.106192328035831 
944	 0.10633011162281 
945	 0.106398239731789 
946	 0.106460750102997 
947	 0.106639564037323 
948	 0.106753937900066 
949	 0.106790274381638 
950	 0.106850631535053 
951	 0.107001036405563 
952	 0.106999441981316 
953	 0.107059143483639 
954	 0.107177756726742 
955	 0.107292786240578 
956	 0.107391349971294 
957	 0.107468567788601 
958	 0.10753158479929 
959	 0.107617318630219 
960	 0.107782565057278 
961	 0.10789106041193 
962	 0.107968412339687 
963	 0.108045257627964 
964	 0.108127988874912 
965	 0.108225792646408 
966	 0.108335830271244 
967	 0.108424007892609 
968	 0.10847432911396 
969	 0.108628414571285 
970	 0.108682923018932 
971	 0.108649767935276 
972	 0.108654290437698 
973	 0.108833953738213 
974	 0.108968764543533 
975	 0.109006293118 
976	 0.108990244567394 
977	 0.109028212726116 
978	 0.109222672879696 
979	 0.109272107481956 
980	 0.109198100864887 
981	 0.109311655163765 
982	 0.109431579709053 
983	 0.109515234827995 
984	 0.109548300504684 
985	 0.109535224735737 
986	 0.109466768801212 
987	 0.109587967395782 
988	 0.109717085957527 
989	 0.10973148047924 
990	 0.109859682619572 
991	 0.109892405569553 
992	 0.109861359000206 
993	 0.109878718852997 
994	 0.11002279818058 
995	 0.109994031488895 
996	 0.110014833509922 
997	 0.110066965222359 
998	 0.110060572624207 
999	 0.110211431980133 
1000	 0.11013025790453 
1001	 0.109633177518845 
1002	 0.109657347202301 
1003	 0.109755493700504 
1004	 0.109707176685333 
1005	 0.109776310622692 
1006	 0.109734669327736 
1007	 0.109576597809792 
1008	 0.109665788710117 
1009	 0.109737396240234 
1010	 0.109875187277794 
1011	 0.109908163547516 
1012	 0.109955944120884 
1013	 0.109960734844208 
1014	 0.109836280345917 
1015	 0.109795674681664 
1016	 0.109800226986408 
1017	 0.109850354492664 
1018	 0.109808146953583 
1019	 0.109787002205849 
1020	 0.109839409589767 
1021	 0.109920136630535 
1022	 0.109958738088608 
1023	 0.10996451228857 
1024	 0.109964229166508 
1025	 0.109868265688419 
1026	 0.109830357134342 
1027	 0.109862759709358 
1028	 0.109853386878967 
1029	 0.109806746244431 
1030	 0.109784550964832 
1031	 0.109821043908596 
1032	 0.109827093780041 
1033	 0.109917066991329 
1034	 0.110034234821796 
1035	 0.110032252967358 
1036	 0.110028028488159 
1037	 0.110004514455795 
1038	 0.109923578798771 
1039	 0.109878234565258 
1040	 0.109873749315739 
1041	 0.10982683300972 
1042	 0.109735414385796 
1043	 0.109698325395584 
1044	 0.109683133661747 
1045	 0.109654374420643 
1046	 0.10962375998497 
1047	 0.109596863389015 
1048	 0.109553195536137 
1049	 0.109462969005108 
1050	 0.109465532004833 
1051	 0.109539657831192 
1052	 0.109536722302437 
1053	 0.109576269984245 
1054	 0.109559461474419 
1055	 0.109459847211838 
1056	 0.109387248754501 
1057	 0.10929474234581 
1058	 0.109232157468796 
1059	 0.109253458678722 
1060	 0.10929424315691 
1061	 0.109332121908665 
1062	 0.109349101781845 
1063	 0.109276808798313 
1064	 0.109225735068321 
1065	 0.109201997518539 
1066	 0.109142035245895 
1067	 0.109069563448429 
1068	 0.10900042206049 
1069	 0.10895012319088 
1070	 0.108895890414715 
1071	 0.108859293162823 
1072	 0.108844414353371 
1073	 0.108848832547665 
1074	 0.108860313892365 
1075	 0.108866058290005 
1076	 0.108837649226189 
1077	 0.10875479131937 
1078	 0.108696192502975 
1079	 0.108645029366016 
1080	 0.108675383031368 
1081	 0.108763918280602 
1082	 0.108725227415562 
1083	 0.10867603123188 
1084	 0.108672887086868 
1085	 0.10861599445343 
1086	 0.108586311340332 
1087	 0.108605809509754 
1088	 0.1086051389575 
1089	 0.108529396355152 
1090	 0.108520522713661 
1091	 0.108490392565727 
1092	 0.108464159071445 
1093	 0.108470030128956 
1094	 0.108420744538307 
1095	 0.108414866030216 
1096	 0.10846022516489 
1097	 0.108513876795769 
1098	 0.108551144599915 
1099	 0.108540713787079 
1100	 0.108541592955589 
1101	 0.108533926308155 
1102	 0.108494617044926 
1103	 0.108498327434063 
1104	 0.1085394769907 
1105	 0.108536452054977 
1106	 0.10861087590456 
1107	 0.108679123222828 
1108	 0.108731515705585 
1109	 0.108804494142532 
1110	 0.108816780149937 
1111	 0.108823679387569 
1112	 0.108826234936714 
1113	 0.108857564628124 
1114	 0.108904980123043 
1115	 0.108961544930935 
1116	 0.109054543077946 
1117	 0.109124690294266 
1118	 0.109190069139004 
1119	 0.109227016568184 
1120	 0.109274692833424 
1121	 0.109307453036308 
1122	 0.109343945980072 
1123	 0.109434247016907 
1124	 0.109493792057037 
1125	 0.10955148935318 
1126	 0.109624534845352 
1127	 0.109694167971611 
1128	 0.109803043305874 
1129	 0.109896011650562 
1130	 0.109946042299271 
1131	 0.109990254044533 
1132	 0.110056929290295 
1133	 0.110115341842175 
1134	 0.110174082219601 
1135	 0.110251545906067 
1136	 0.110347509384155 
1137	 0.110379330813885 
1138	 0.110408112406731 
1139	 0.110485032200813 
1140	 0.110535889863968 
1141	 0.11060456931591 
1142	 0.11067470908165 
1143	 0.110721185803413 
1144	 0.110778704285622 
1145	 0.110858537256718 
1146	 0.110984742641449 
1147	 0.111096829175949 
1148	 0.111183278262615 
1149	 0.111260272562504 
1150	 0.111285969614983 
1151	 0.111345402896404 
1152	 0.111417606472969 
1153	 0.111496768891811 
1154	 0.11155492067337 
1155	 0.111631311476231 
1156	 0.111721254885197 
1157	 0.111804656684399 
1158	 0.111920520663261 
1159	 0.11202534288168 
1160	 0.112086266279221 
1161	 0.112190723419189 
1162	 0.112318813800812 
1163	 0.112428843975067 
1164	 0.112504877150059 
1165	 0.112563371658325 
1166	 0.112658418715 
1167	 0.112736955285072 
1168	 0.112828001379967 
1169	 0.112953998148441 
1170	 0.113110020756721 
1171	 0.113178715109825 
1172	 0.113263972103596 
1173	 0.113375931978226 
1174	 0.113441877067089 
1175	 0.113539434969425 
1176	 0.113653011620045 
1177	 0.113749124109745 
1178	 0.113862439990044 
1179	 0.11395488679409 
1180	 0.114030547440052 
1181	 0.11414347589016 
1182	 0.11424645781517 
1183	 0.114350751042366 
1184	 0.114470154047012 
1185	 0.114590004086494 
1186	 0.114693693816662 
1187	 0.114817015826702 
1188	 0.114960163831711 
1189	 0.115097090601921 
1190	 0.115219816565514 
1191	 0.11534521728754 
1192	 0.11546516418457 
1193	 0.115554802119732 
1194	 0.115661680698395 
1195	 0.115790508687496 
1196	 0.115907698869705 
1197	 0.116038583219051 
1198	 0.116153128445148 
1199	 0.116265311837196 
1200	 0.11638318002224 
1201	 0.116509653627872 
1202	 0.116649992763996 
1203	 0.116808690130711 
1204	 0.116955175995827 
1205	 0.117124669253826 
1206	 0.117256172001362 
1207	 0.117347814142704 
1208	 0.117497503757477 
1209	 0.117616876959801 
1210	 0.117711566388607 
1211	 0.117888040840626 
1212	 0.118025541305542 
1213	 0.118132680654526 
1214	 0.118294782936573 
1215	 0.11844477802515 
1216	 0.118582658469677 
1217	 0.118761792778969 
1218	 0.118930354714394 
1219	 0.119070500135422 
1220	 0.119192019104958 
1221	 0.11932198703289 
1222	 0.119404450058937 
1223	 0.119542293250561 
1224	 0.119709327816963 
1225	 0.119867250323296 
1226	 0.120040789246559 
1227	 0.120244957506657 
1228	 0.120379589498043 
1229	 0.120518878102303 
1230	 0.120667487382889 
1231	 0.12078819423914 
1232	 0.120951220393181 
1233	 0.121125638484955 
1234	 0.121278859674931 
1235	 0.121459186077118 
1236	 0.121631525456905 
1237	 0.121782414615154 
1238	 0.121952727437019 
1239	 0.12213870882988 
1240	 0.122283659875393 
1241	 0.122419208288193 
1242	 0.122569859027863 
1243	 0.122677944600582 
1244	 0.122833430767059 
1245	 0.123044021427631 
1246	 0.123211406171322 
1247	 0.123373351991177 
1248	 0.12352991104126 
1249	 0.123661264777184 
1250	 0.123821996152401 
1251	 0.124012172222137 
1252	 0.124178886413574 
1253	 0.124319933354855 
1254	 0.124474368989468 
1255	 0.124638848006725 
1256	 0.124802306294441 
1257	 0.12500011920929 
1258	 0.125187069177628 
1259	 0.125342130661011 
1260	 0.125446990132332 
1261	 0.125605657696724 
1262	 0.125774502754211 
1263	 0.125928923487663 
1264	 0.126094400882721 
1265	 0.126261651515961 
1266	 0.126418203115463 
1267	 0.126580893993378 
1268	 0.126761227846146 
1269	 0.12693352997303 
1270	 0.127090588212013 
1271	 0.127259477972984 
1272	 0.127426475286484 
1273	 0.127604067325592 
1274	 0.127817675471306 
1275	 0.12799671292305 
1276	 0.128174677491188 
1277	 0.128370746970177 
1278	 0.128521531820297 
1279	 0.128698542714119 
1280	 0.128868237137794 
1281	 0.129038497805595 
1282	 0.129205673933029 
1283	 0.129352480173111 
1284	 0.129533380270004 
1285	 0.129762694239616 
1286	 0.129946038126945 
1287	 0.130119353532791 
1288	 0.130298465490341 
1289	 0.130444347858429 
1290	 0.130606546998024 
1291	 0.130792692303658 
1292	 0.130970776081085 
1293	 0.131137192249298 
1294	 0.131304860115051 
1295	 0.131474003195763 
1296	 0.131654366850853 
1297	 0.131798788905144 
1298	 0.131958112120628 
1299	 0.132161840796471 
1300	 0.132337003946304 
1301	 0.132527962327003 
1302	 0.132709532976151 
1303	 0.132859334349632 
1304	 0.132954657077789 
1305	 0.13308684527874 
1306	 0.133209452033043 
1307	 0.133349016308784 
1308	 0.133504405617714 
1309	 0.133661538362503 
1310	 0.133835479617119 
1311	 0.133996456861496 
1312	 0.134131953120232 
1313	 0.134300872683525 
1314	 0.134498327970505 
1315	 0.13468211889267 
1316	 0.134891360998154 
1317	 0.135072454810143 
1318	 0.13522182404995 
1319	 0.135363042354584 
1320	 0.135528370738029 
1321	 0.13571859896183 
1322	 0.13595449924469 
1323	 0.13618092238903 
1324	 0.136317729949951 
1325	 0.136469513177872 
1326	 0.136649534106255 
1327	 0.136770769953728 
1328	 0.136984825134277 
1329	 0.137331172823906 
1330	 0.137548610568047 
1331	 0.137717977166176 
1332	 0.137937560677528 
1333	 0.138097181916237 
1334	 0.138322457671165 
1335	 0.138667285442352 
1336	 0.138892978429794 
1337	 0.139035105705261 
1338	 0.139255627989769 
1339	 0.139470353722572 
1340	 0.139686286449432 
1341	 0.139961689710617 
1342	 0.140209719538689 
1343	 0.14038921892643 
1344	 0.14056596159935 
1345	 0.14078463613987 
1346	 0.141014352440834 
1347	 0.141267001628876 
1348	 0.141544044017792 
1349	 0.141768127679825 
1350	 0.142009526491165 
1351	 0.142243281006813 
1352	 0.142448529601097 
1353	 0.142675131559372 
1354	 0.142923608422279 
1355	 0.143162786960602 
1356	 0.143403232097626 
1357	 0.143646210432053 
1358	 0.143895462155342 
1359	 0.144123837351799 
1360	 0.144344925880432 
1361	 0.144566863775253 
1362	 0.144785419106483 
1363	 0.144990056753159 
1364	 0.145176485180855 
1365	 0.145374104380608 
1366	 0.145589351654053 
1367	 0.145767077803612 
1368	 0.145938962697983 
1369	 0.146086409687996 
1370	 0.146230399608612 
1371	 0.146334335207939 
1372	 0.146469682455063 
1373	 0.146667048335075 
1374	 0.146811246871948 
1375	 0.146916180849075 
1376	 0.147043481469154 
1377	 0.147114261984825 
1378	 0.147159099578857 
1379	 0.147224381566048 
1380	 0.14719070494175 
1381	 0.147132158279419 
1382	 0.14691635966301 
1383	 0.146631136536598 
1384	 0.146199911832809 
1385	 0.145604029297829 
1386	 0.144991531968117 
1387	 0.144251570105553 
1388	 0.143559217453003 
1389	 0.14277021586895 
1390	 0.142114013433456 
1391	 0.141451179981232 
1392	 0.140937566757202 
1393	 0.140496745705605 
1394	 0.140185326337814 
1395	 0.140012994408607 
1396	 0.139902621507645 
1397	 0.139919459819794 
1398	 0.13996833562851 
1399	 0.140097990632057 
1400	 0.140238508582115 
1401	 0.140422746539116 
1402	 0.140641376376152 
1403	 0.140846282243729 
1404	 0.141062527894974 
1405	 0.141277179121971 
1406	 0.141497850418091 
1407	 0.141776695847511 
1408	 0.142068386077881 
1409	 0.142354875802994 
1410	 0.142711833119392 
1411	 0.143088653683662 
1412	 0.143479377031326 
1413	 0.143904060125351 
1414	 0.144397214055061 
1415	 0.144849359989166 
1416	 0.145291551947594 
1417	 0.145766645669937 
1418	 0.146269232034683 
1419	 0.146737024188042 
1420	 0.147236928343773 
1421	 0.147671416401863 
1422	 0.148074924945831 
1423	 0.148429036140442 
1424	 0.14873044192791 
1425	 0.149025350809097 
1426	 0.149286270141602 
1427	 0.149515733122826 
1428	 0.149721562862396 
1429	 0.149915531277657 
1430	 0.150066375732422 
1431	 0.150217190384865 
1432	 0.150358930230141 
1433	 0.150501579046249 
1434	 0.150629386305809 
1435	 0.150760188698769 
1436	 0.150907143950462 
1437	 0.151038929820061 
1438	 0.151135146617889 
1439	 0.151236042380333 
1440	 0.151369288563728 
1441	 0.151526734232903 
1442	 0.151689857244492 
1443	 0.151860758662224 
1444	 0.152039587497711 
1445	 0.152176842093468 
1446	 0.152345255017281 
1447	 0.15253809094429 
1448	 0.152737826108932 
1449	 0.152929469943047 
1450	 0.153156071901321 
1451	 0.153423801064491 
1452	 0.153655037283897 
1453	 0.153894081711769 
1454	 0.154117003083229 
1455	 0.154311269521713 
1456	 0.154528081417084 
1457	 0.154744565486908 
1458	 0.154970869421959 
1459	 0.15521140396595 
1460	 0.155448123812675 
1461	 0.155699759721756 
1462	 0.155933946371078 
1463	 0.156147375702858 
1464	 0.156382575631142 
1465	 0.156605899333954 
1466	 0.1568563580513 
1467	 0.157165184617043 
1468	 0.157416939735413 
1469	 0.157653659582138 
1470	 0.157883450388908 
1471	 0.158060699701309 
1472	 0.158276364207268 
1473	 0.158506110310555 
1474	 0.158743754029274 
1475	 0.159020930528641 
1476	 0.159259498119354 
1477	 0.159444779157639 
1478	 0.159660905599594 
1479	 0.159874334931374 
1480	 0.160066038370132 
1481	 0.160294815897942 
1482	 0.160541579127312 
1483	 0.160740166902542 
1484	 0.16091451048851 
1485	 0.161089032888412 
1486	 0.16125176846981 
1487	 0.161444425582886 
1488	 0.161641329526901 
1489	 0.161824867129326 
1490	 0.162031933665276 
1491	 0.162211924791336 
1492	 0.162382140755653 
1493	 0.162567153573036 
1494	 0.162781193852425 
1495	 0.162936016917229 
1496	 0.16306845843792 
1497	 0.163201630115509 
1498	 0.163295224308968 
1499	 0.1634162068367 
1500	 0.163550436496735 
1501	 0.163688093423843 
1502	 0.163821518421173 
1503	 0.163965627551079 
1504	 0.164152413606644 
1505	 0.164270415902138 
1506	 0.164333507418633 
1507	 0.164454519748688 
1508	 0.164568990468979 
1509	 0.16468171775341 
1510	 0.164850547909737 
1511	 0.164975315332413 
1512	 0.165049344301224 
1513	 0.165141418576241 
1514	 0.165227994322777 
1515	 0.165332168340683 
1516	 0.165433198213577 
1517	 0.165557846426964 
1518	 0.165720909833908 
1519	 0.165856778621674 
1520	 0.165990814566612 
1521	 0.166122153401375 
1522	 0.166234090924263 
1523	 0.166360929608345 
1524	 0.166507124900818 
1525	 0.166636765003204 
1526	 0.166749522089958 
1527	 0.166883736848831 
1528	 0.167043566703796 
1529	 0.167166024446487 
1530	 0.167278721928596 
1531	 0.167385041713715 
1532	 0.167487233877182 
1533	 0.167606145143509 
1534	 0.167782410979271 
1535	 0.167983055114746 
1536	 0.168176889419556 
1537	 0.168325766921043 
1538	 0.168436363339424 
1539	 0.168574631214142 
1540	 0.168717354536057 
1541	 0.168874070048332 
1542	 0.169070467352867 
1543	 0.169244036078453 
1544	 0.16939702630043 
1545	 0.169580385088921 
1546	 0.169773176312447 
1547	 0.169946521520615 
1548	 0.170127928256989 
1549	 0.170311942696571 
1550	 0.170474678277969 
1551	 0.170645341277122 
1552	 0.170841559767723 
1553	 0.17102038860321 
1554	 0.17118538916111 
1555	 0.171388223767281 
1556	 0.171586409211159 
1557	 0.171777725219727 
1558	 0.171986222267151 
1559	 0.172170519828796 
1560	 0.172347337007523 
1561	 0.172553062438965 
1562	 0.172793194651604 
1563	 0.173034965991974 
1564	 0.173277303576469 
1565	 0.173504561185837 
1566	 0.173681065440178 
1567	 0.173885673284531 
1568	 0.174114346504211 
1569	 0.174370691180229 
1570	 0.174593195319176 
1571	 0.174834132194519 
1572	 0.175045251846313 
1573	 0.175215363502502 
1574	 0.175411477684975 
1575	 0.175607964396477 
1576	 0.175813302397728 
1577	 0.176028981804848 
1578	 0.176234975457191 
1579	 0.176437437534332 
1580	 0.176658824086189 
1581	 0.176869198679924 
1582	 0.177119389176369 
1583	 0.177421599626541 
1584	 0.177675843238831 
1585	 0.177929222583771 
1586	 0.17816898226738 
1587	 0.178371787071228 
1588	 0.17860671877861 
1589	 0.178858801722527 
1590	 0.179105281829834 
1591	 0.179357096552849 
1592	 0.179604485630989 
1593	 0.179850831627846 
1594	 0.180096298456192 
1595	 0.180342301726341 
1596	 0.180574476718903 
1597	 0.180800795555115 
1598	 0.181032627820969 
1599	 0.181253612041473 
1600	 0.181489408016205 
1601	 0.181742161512375 
1602	 0.181966975331306 
1603	 0.182176545262337 
1604	 0.182405039668083 
1605	 0.182617321610451 
1606	 0.182869985699654 
1607	 0.183169692754745 
1608	 0.183427393436432 
1609	 0.183696001768112 
1610	 0.1839220225811 
1611	 0.184090510010719 
1612	 0.184311494231224 
1613	 0.184535413980484 
1614	 0.184773668646812 
1615	 0.185042142868042 
1616	 0.185299083590508 
1617	 0.185554325580597 
1618	 0.185805693268776 
1619	 0.186069220304489 
1620	 0.186316445469856 
1621	 0.186542555689812 
1622	 0.186782628297806 
1623	 0.18704080581665 
1624	 0.187264814972878 
1625	 0.187467753887177 
1626	 0.187685430049896 
1627	 0.187879234552383 
1628	 0.188092961907387 
1629	 0.188336431980133 
1630	 0.188556715846062 
1631	 0.188759595155716 
1632	 0.188971951603889 
1633	 0.189196616411209 
1634	 0.189419761300087 
1635	 0.189639165997505 
1636	 0.189866945147514 
1637	 0.19007833302021 
1638	 0.190307706594467 
1639	 0.190570861101151 
1640	 0.190810114145279 
1641	 0.191052854061127 
1642	 0.191289097070694 
1643	 0.191493898630142 
1644	 0.191727474331856 
1645	 0.191989079117775 
1646	 0.192215457558632 
1647	 0.192441493272781 
1648	 0.192653730511665 
1649	 0.192824572324753 
1650	 0.193037495017052 
1651	 0.19327500462532 
1652	 0.193487390875816 
1653	 0.193701043725014 
1654	 0.19391568005085 
1655	 0.194114044308662 
1656	 0.194332703948021 
1657	 0.194585829973221 
1658	 0.194801017642021 
1659	 0.194993555545807 
1660	 0.195180669426918 
1661	 0.195338562130928 
1662	 0.195533633232117 
1663	 0.195752933621407 
1664	 0.195954844355583 
1665	 0.196156248450279 
1666	 0.196380481123924 
1667	 0.19660384953022 
1668	 0.196852013468742 
1669	 0.197056263685226 
1670	 0.197201937437057 
1671	 0.197395265102386 
1672	 0.197625547647476 
1673	 0.197871670126915 
1674	 0.198124453425407 
1675	 0.19831620156765 
1676	 0.198497340083122 
1677	 0.198689833283424 
1678	 0.198880881071091 
1679	 0.199107095599175 
1680	 0.199292317032814 
1681	 0.199449583888054 
1682	 0.199654221534729 
1683	 0.19987453520298 
1684	 0.200072661042213 
1685	 0.20027768611908 
1686	 0.200516059994698 
1687	 0.200715467333794 
1688	 0.200925052165985 
1689	 0.201168283820152 
1690	 0.201350152492523 
1691	 0.201533123850822 
1692	 0.201741501688957 
1693	 0.201933786273003 
1694	 0.20212385058403 
1695	 0.202341333031654 
1696	 0.202593788504601 
1697	 0.202844515442848 
1698	 0.2030960470438 
1699	 0.203333631157875 
1700	 0.203526377677917 
1701	 0.203688472509384 
1702	 0.203852266073227 
1703	 0.204027876257896 
1704	 0.204219982028008 
1705	 0.204437375068665 
1706	 0.204630479216576 
1707	 0.204785615205765 
1708	 0.204921424388885 
1709	 0.20505627989769 
1710	 0.205220729112625 
1711	 0.205437690019608 
1712	 0.205673933029175 
1713	 0.205863103270531 
1714	 0.20607203245163 
1715	 0.206272155046463 
1716	 0.206411585211754 
1717	 0.20655569434166 
1718	 0.206707954406738 
1719	 0.206856116652489 
1720	 0.206999242305756 
1721	 0.2071942538023 
1722	 0.20738622546196 
1723	 0.207567617297173 
1724	 0.207796052098274 
1725	 0.207952037453651 
1726	 0.208049401640892 
1727	 0.208164855837822 
1728	 0.208222627639771 
1729	 0.208359882235527 
1730	 0.208552166819572 
1731	 0.208706900477409 
1732	 0.20889712870121 
1733	 0.209046751260757 
1734	 0.209146246314049 
1735	 0.209303647279739 
1736	 0.209453955292702 
1737	 0.209624066948891 
1738	 0.20982363820076 
1739	 0.209964573383331 
1740	 0.210117682814598 
1741	 0.210265085101128 
1742	 0.210407435894012 
1743	 0.210573568940163 
1744	 0.210709184408188 
1745	 0.210830092430115 
1746	 0.210954278707504 
1747	 0.2110895216465 
1748	 0.211281388998032 
1749	 0.211460173130035 
1750	 0.21158030629158 
1751	 0.211703673005104 
1752	 0.211790531873703 
1753	 0.211862429976463 
1754	 0.21198895573616 
1755	 0.212135210633278 
1756	 0.212264060974121 
1757	 0.212415918707848 
1758	 0.212580174207687 
1759	 0.212684854865074 
1760	 0.212798044085503 
1761	 0.212930902838707 
1762	 0.213064432144165 
1763	 0.213218718767166 
1764	 0.213338956236839 
1765	 0.213450103998184 
1766	 0.213576018810272 
1767	 0.213682115077972 
1768	 0.213798895478249 
1769	 0.213949516415596 
1770	 0.214091897010803 
1771	 0.214251413941383 
1772	 0.214459300041199 
1773	 0.214630052447319 
1774	 0.214752197265625 
1775	 0.214876353740692 
1776	 0.214969113469124 
1777	 0.215068995952606 
1778	 0.21516153216362 
1779	 0.21524840593338 
1780	 0.215354889631271 
1781	 0.21550127863884 
1782	 0.21566991508007 
1783	 0.215827658772469 
1784	 0.215977370738983 
1785	 0.216075778007507 
1786	 0.216176301240921 
1787	 0.216279909014702 
1788	 0.216360464692116 
1789	 0.216446965932846 
1790	 0.216506257653236 
1791	 0.216588541865349 
1792	 0.216673359274864 
1793	 0.21675431728363 
1794	 0.216863125562668 
1795	 0.216988295316696 
1796	 0.217131271958351 
1797	 0.217253655195236 
1798	 0.217386320233345 
1799	 0.217514425516129 
1800	 0.217617988586426 
1801	 0.217715799808502 
1802	 0.217809841036797 
1803	 0.217877730727196 
1804	 0.217883452773094 
1805	 0.21795217692852 
1806	 0.218048945069313 
1807	 0.218083307147026 
1808	 0.21819706261158 
1809	 0.21829292178154 
1810	 0.21829254925251 
1811	 0.218311116099358 
1812	 0.218343526124954 
1813	 0.218380808830261 
1814	 0.218430534005165 
1815	 0.218495771288872 
1816	 0.21858224272728 
1817	 0.218634590506554 
1818	 0.218724995851517 
1819	 0.218807011842728 
1820	 0.218855902552605 
1821	 0.218905732035637 
1822	 0.218910992145538 
1823	 0.218920141458511 
1824	 0.218925401568413 
1825	 0.218955129384995 
1826	 0.219028517603874 
1827	 0.219114318490028 
1828	 0.219244554638863 
1829	 0.219335585832596 
1830	 0.21938344836235 
1831	 0.228216797113419 
1832	 0.22817562520504 
1833	 0.228172168135643 
1834	 0.228203356266022 
1835	 0.228201895952225 
1836	 0.22817987203598 
1837	 0.228143081068993 
1838	 0.228084996342659 
1839	 0.228055596351624 
1840	 0.227926418185234 
1841	 0.227805808186531 
1842	 0.227750688791275 
1843	 0.227656289935112 
1844	 0.227593407034874 
1845	 0.227638721466064 
1846	 0.227590337395668 
1847	 0.227518439292908 
1848	 0.227373763918877 
1849	 0.227240830659866 
1850	 0.227052927017212 
1851	 0.226872950792313 
1852	 0.226746365427971 
1853	 0.22653329372406 
1854	 0.226333349943161 
1855	 0.226153746247292 
1856	 0.225948542356491 
1857	 0.22576992213726 
1858	 0.225648120045662 
1859	 0.225499480962753 
1860	 0.225279435515404 
1861	 0.225002735853195 
1862	 0.224772125482559 
1863	 0.224549889564514 
1864	 0.224292606115341 
1865	 0.224187955260277 
1866	 0.224035188555717 
1867	 0.22387757897377 
1868	 0.223655879497528 
1869	 0.223509177565575 
1870	 0.223280414938927 
1871	 0.223057270050049 
1872	 0.222875639796257 
1873	 0.222696349024773 
1874	 0.222519859671593 
1875	 0.222197100520134 
1876	 0.221884816884995 
1877	 0.22163251042366 
1878	 0.221417039632797 
1879	 0.221117585897446 
1880	 0.220888078212738 
1881	 0.220683977007866 
1882	 0.220358163118362 
1883	 0.219992086291313 
1884	 0.219629719853401 
1885	 0.219307899475098 
1886	 0.218965128064156 
1887	 0.218576997518539 
1888	 0.218244209885597 
1889	 0.217962309718132 
1890	 0.217633038759232 
1891	 0.217250913381577 
1892	 0.216938972473145 
1893	 0.216588199138641 
1894	 0.216080740094185 
1895	 0.215534269809723 
1896	 0.215065777301788 
1897	 0.214530885219574 
1898	 0.214004084467888 
1899	 0.213541761040688 
1900	 0.213177606463432 
1901	 0.212679669260979 
1902	 0.212184816598892 
1903	 0.211775109171867 
1904	 0.211283504962921 
1905	 0.210869506001472 
1906	 0.210539728403091 
1907	 0.210210800170898 
1908	 0.209955722093582 
1909	 0.209813103079796 
1910	 0.209647685289383 
1911	 0.209511563181877 
1912	 0.209345564246178 
1913	 0.209320038557053 
1914	 0.209338143467903 
1915	 0.209395632147789 
1916	 0.209533482789993 
1917	 0.209545850753784 
1918	 0.209567546844482 
1919	 0.209678307175636 
1920	 0.209745332598686 
1921	 0.209900096058846 
1922	 0.210004225373268 
1923	 0.210079729557037 
1924	 0.210033878684044 
1925	 0.21014691889286 
1926	 0.210232391953468 
1927	 0.210193246603012 
1928	 0.21029195189476 
1929	 0.21031291782856 
1930	 0.210207089781761 
1931	 0.210349887609482 
1932	 0.210468173027039 
1933	 0.210499197244644 
1934	 0.210472241044044 
1935	 0.210582494735718 
1936	 0.21056666970253 
1937	 0.210459053516388 
1938	 0.210412636399269 
1939	 0.210369810461998 
1940	 0.21025113761425 
1941	 0.210063800215721 
1942	 0.209941163659096 
1943	 0.209841370582581 
1944	 0.209725961089134 
1945	 0.20962929725647 
1946	 0.20952183008194 
1947	 0.20941486954689 
1948	 0.209263458848 
1949	 0.209141299128532 
1950	 0.209052905440331 
1951	 0.208972230553627 
1952	 0.208913832902908 
1953	 0.208837077021599 
1954	 0.208736315369606 
1955	 0.208642154932022 
1956	 0.208589792251587 
1957	 0.208576679229736 
1958	 0.208619117736816 
1959	 0.208648934960365 
1960	 0.208750233054161 
1961	 0.208784803748131 
1962	 0.208706170320511 
1963	 0.208598345518112 
1964	 0.208477437496185 
1965	 0.208346709609032 
1966	 0.208248734474182 
1967	 0.20816595852375 
1968	 0.208084508776665 
1969	 0.208002522587776 
1970	 0.20791257917881 
1971	 0.20786289870739 
1972	 0.207763507962227 
1973	 0.207639023661613 
1974	 0.207467764616013 
1975	 0.207343950867653 
1976	 0.20717379450798 
1977	 0.206959664821625 
1978	 0.20677849650383 
1979	 0.206639721989632 
1980	 0.206581696867943 
1981	 0.206485375761986 
1982	 0.206440821290016 
1983	 0.206370547413826 
1984	 0.206235572695732 
1985	 0.206169113516808 
1986	 0.206135824322701 
1987	 0.206154927611351 
1988	 0.206216305494308 
1989	 0.206188648939133 
1990	 0.206143572926521 
1991	 0.20618200302124 
1992	 0.206238940358162 
1993	 0.206328958272934 
1994	 0.206433489918709 
1995	 0.206554919481277 
1996	 0.20674441754818 
1997	 0.207006424665451 
1998	 0.207229718565941 
1999	 0.207491278648376 
2000	 0.207753032445908 
2001	 0.207971513271332 
2002	 0.208181247115135 
2003	 0.20851719379425 
2004	 0.208929657936096 
2005	 0.209231793880463 
2006	 0.209493443369865 
2007	 0.209862977266312 
2008	 0.210184454917908 
2009	 0.210622802376747 
2010	 0.211298897862434 
2011	 0.211805582046509 
2012	 0.212245613336563 
2013	 0.212691560387611 
2014	 0.213221028447151 
2015	 0.213786095380783 
2016	 0.214402228593826 
2017	 0.215070143342018 
2018	 0.215677753090858 
2019	 0.216234400868416 
2020	 0.216864824295044 
2021	 0.217546835541725 
2022	 0.218226626515388 
2023	 0.218961209058762 
2024	 0.219636470079422 
2025	 0.22029110789299 
2026	 0.220958411693573 
2027	 0.221586242318153 
2028	 0.222248509526253 
2029	 0.222954213619232 
2030	 0.223595052957535 
2031	 0.22427824139595 
2032	 0.224965915083885 
2033	 0.225595772266388 
2034	 0.226345136761665 
2035	 0.227008834481239 
2036	 0.22761182487011 
2037	 0.228235453367233 
2038	 0.228850811719894 
2039	 0.229432448744774 
2040	 0.230006322264671 
2041	 0.230596482753754 
2042	 0.231138974428177 
2043	 0.231760829687119 
2044	 0.232400104403496 
2045	 0.232955127954483 
2046	 0.233520895242691 
2047	 0.234034597873688 
2048	 0.234550699591637 
2049	 0.235068738460541 
2050	 0.235550731420517 
2051	 0.235974952578545 
2052	 0.236445844173431 
2053	 0.236947879195213 
2054	 0.23738032579422 
2055	 0.23779259622097 
2056	 0.238209530711174 
2057	 0.238606333732605 
2058	 0.238933131098747 
2059	 0.239266142249107 
2060	 0.239658892154694 
2061	 0.240070924162865 
2062	 0.24042309820652 
2063	 0.240730866789818 
2064	 0.241057023406029 
2065	 0.241387218236923 
2066	 0.241649001836777 
2067	 0.241968110203743 
2068	 0.242395848035812 
2069	 0.242718830704689 
2070	 0.24293652176857 
2071	 0.243246793746948 
2072	 0.243611857295036 
2073	 0.243888705968857 
2074	 0.244181111454964 
2075	 0.244508743286133 
2076	 0.244734689593315 
2077	 0.244947895407677 
2078	 0.245149075984955 
2079	 0.24536007642746 
2080	 0.245619043707848 
2081	 0.245924636721611 
2082	 0.246146276593208 
2083	 0.246391177177429 
2084	 0.246582597494125 
2085	 0.2466721534729 
2086	 0.246801421046257 
2087	 0.246931821107864 
2088	 0.247077658772469 
2089	 0.247262507677078 
2090	 0.247350841760635 
2091	 0.2474485039711 
2092	 0.24757282435894 
2093	 0.247547015547752 
2094	 0.247488647699356 
2095	 0.247419774532318 
2096	 0.247320592403412 
2097	 0.247257009148598 
2098	 0.24725978076458 
2099	 0.247144296765327 
2100	 0.246960550546646 
2101	 0.246822565793991 
2102	 0.246565073728561 
2103	 0.246452257037163 
2104	 0.246525794267654 
2105	 0.246459245681763 
2106	 0.246355205774307 
2107	 0.24626524746418 
2108	 0.246204555034637 
2109	 0.246196821331978 
2110	 0.24620458483696 
2111	 0.246214732527733 
2112	 0.246154636144638 
2113	 0.245974630117416 
2114	 0.245949953794479 
2115	 0.246065869927406 
2116	 0.246052354574203 
2117	 0.246027648448944 
2118	 0.246035739779472 
2119	 0.245922297239304 
2120	 0.245939865708351 
2121	 0.246108591556549 
2122	 0.246208474040031 
2123	 0.246341824531555 
2124	 0.246442317962646 
2125	 0.246514618396759 
2126	 0.246567159891129 
2127	 0.246638968586922 
2128	 0.246720850467682 
2129	 0.246871680021286 
2130	 0.246972382068634 
2131	 0.247040525078773 
2132	 0.247172072529793 
2133	 0.247259512543678 
2134	 0.247343227267265 
2135	 0.247386693954468 
2136	 0.247363850474358 
2137	 0.247393786907196 
2138	 0.247449234127998 
2139	 0.247450590133667 
2140	 0.24748957157135 
2141	 0.247499346733093 
2142	 0.247403785586357 
2143	 0.247337535023689 
2144	 0.247326627373695 
2145	 0.247237846255302 
2146	 0.247114241123199 
2147	 0.246981382369995 
2148	 0.246768996119499 
2149	 0.246561288833618 
2150	 0.246332883834839 
2151	 0.246185198426247 
2152	 0.246042251586914 
2153	 0.245982632040977 
2154	 0.24578158557415 
2155	 0.245527252554893 
2156	 0.245315998792648 
2157	 0.245086207985878 
2158	 0.244791775941849 
2159	 0.244451209902763 
2160	 0.244149342179298 
2161	 0.243795320391655 
2162	 0.243484288454056 
2163	 0.243249595165253 
2164	 0.243013277649879 
2165	 0.24269962310791 
2166	 0.242335766553879 
2167	 0.2419313788414 
2168	 0.241528213024139 
2169	 0.241240218281746 
2170	 0.240904971957207 
2171	 0.240453749895096 
2172	 0.240070089697838 
2173	 0.239670723676682 
2174	 0.239187300205231 
2175	 0.238725557923317 
2176	 0.238322257995605 
2177	 0.23789370059967 
2178	 0.237411379814148 
2179	 0.236904725432396 
2180	 0.236432626843452 
2181	 0.235927373170853 
2182	 0.235321372747421 
2183	 0.234786078333855 
2184	 0.234319046139717 
2185	 0.233791276812553 
2186	 0.233237370848656 
2187	 0.232690185308456 
2188	 0.232139483094215 
2189	 0.231567978858948 
2190	 0.230905190110207 
2191	 0.230231419205666 
2192	 0.229633584618568 
2193	 0.228939980268478 
2194	 0.228213414549828 
2195	 0.227500036358833 
2196	 0.226751253008842 
2197	 0.225814834237099 
2198	 0.225124195218086 
2199	 0.224633857607841 
2200	 0.22399628162384 
2201	 0.223395898938179 
2202	 0.22272464632988 
2203	 0.221862509846687 
2204	 0.221194863319397 
2205	 0.220735117793083 
2206	 0.220074310898781 
2207	 0.219400763511658 
2208	 0.218704015016556 
2209	 0.217827558517456 
2210	 0.217009410262108 
2211	 0.216229423880577 
2212	 0.215522989630699 
2213	 0.214730396866798 
2214	 0.213808804750443 
2215	 0.212889835238457 
2216	 0.211978495121002 
2217	 0.210884377360344 
2218	 0.209763020277023 
2219	 0.208622843027115 
2220	 0.207317262887955 
2221	 0.206048339605331 
2222	 0.204792410135269 
2223	 0.203412652015686 
2224	 0.202010840177536 
2225	 0.200427532196045 
2226	 0.19869376718998 
2227	 0.196913048624992 
2228	 0.194972768425941 
2229	 0.193019434809685 
2230	 0.191060364246368 
2231	 0.188962683081627 
2232	 0.186814904212952 
2233	 0.184547752141953 
2234	 0.182077437639236 
2235	 0.179595500230789 
2236	 0.177043110132217 
2237	 0.174431279301643 
2238	 0.171722322702408 
2239	 0.169071182608604 
2240	 0.166359454393387 
2241	 0.163604438304901 
2242	 0.160969704389572 
2243	 0.158471927046776 
2244	 0.156150966882706 
2245	 0.15399894118309 
2246	 0.151889368891716 
2247	 0.150100290775299 
2248	 0.148565530776978 
2249	 0.147118434309959 
2250	 0.146091595292091 
2251	 0.145392954349518 
2252	 0.144965752959251 
2253	 0.144904345273972 
2254	 0.144945502281189 
2255	 0.145288988947868 
2256	 0.145762518048286 
2257	 0.146447241306305 
2258	 0.147111669182777 
2259	 0.147989466786385 
2260	 0.148774355649948 
2261	 0.149570226669312 
2262	 0.150319442152977 
2263	 0.151040554046631 
2264	 0.151790305972099 
2265	 0.152531325817108 
2266	 0.153242349624634 
2267	 0.154099375009537 
2268	 0.154736489057541 
2269	 0.155195355415344 
2270	 0.155620574951172 
2271	 0.15594644844532 
2272	 0.156193867325783 
2273	 0.156524494290352 
2274	 0.156697750091553 
2275	 0.156760215759277 
2276	 0.156734824180603 
2277	 0.156484305858612 
2278	 0.156341090798378 
2279	 0.156063735485077 
2280	 0.155508950352669 
2281	 0.154925808310509 
2282	 0.154252082109451 
2283	 0.15353025496006 
2284	 0.152757540345192 
2285	 0.151874557137489 
2286	 0.150873973965645 
2287	 0.150042906403542 
2288	 0.149226278066635 
2289	 0.148284330964088 
2290	 0.147460371255875 
2291	 0.146564677357674 
2292	 0.145444855093956 
2293	 0.144584164023399 
2294	 0.143890544772148 
2295	 0.143141463398933 
2296	 0.142433047294617 
2297	 0.141815423965454 
2298	 0.141246616840363 
2299	 0.140657290816307 
2300	 0.140101373195648 
2301	 0.139588609337807 
2302	 0.139058232307434 
2303	 0.138661280274391 
2304	 0.138487085700035 
2305	 0.138102844357491 
2306	 0.137671664357185 
2307	 0.137241274118423 
2308	 0.136615589261055 
2309	 0.136167675256729 
2310	 0.135950312018394 
2311	 0.135531350970268 
2312	 0.135060012340546 
2313	 0.13458551466465 
2314	 0.133955463767052 
2315	 0.133398830890656 
2316	 0.132839113473892 
2317	 0.132436990737915 
2318	 0.132023856043816 
2319	 0.131554931402206 
2320	 0.131184294819832 
2321	 0.130696460604668 
2322	 0.1302200704813 
2323	 0.129874646663666 
2324	 0.129453077912331 
2325	 0.129158958792686 
2326	 0.128875017166138 
2327	 0.12854278087616 
2328	 0.128208667039871 
2329	 0.127785980701447 
2330	 0.127555817365646 
2331	 0.127334862947464 
2332	 0.127079129219055 
2333	 0.127107828855515 
2334	 0.127093359827995 
2335	 0.126786962151527 
2336	 0.126544088125229 
2337	 0.126516297459602 
2338	 0.12650865316391 
2339	 0.12654048204422 
2340	 0.126566603779793 
2341	 0.126570552587509 
2342	 0.126727819442749 
2343	 0.12696798145771 
2344	 0.127430006861687 
2345	 0.127974823117256 
2346	 0.128085896372795 
2347	 0.128343507647514 
2348	 0.129074305295944 
2349	 0.129606023430824 
2350	 0.130061760544777 
2351	 0.130666702985764 
2352	 0.131225883960724 
2353	 0.131516620516777 
2354	 0.131945103406906 
2355	 0.132560878992081 
2356	 0.13312791287899 
2357	 0.133519098162651 
2358	 0.134215161204338 
2359	 0.13529047369957 
2360	 0.135928899049759 
2361	 0.136385947465897 
2362	 0.13704389333725 
2363	 0.137526035308838 
2364	 0.138280615210533 
2365	 0.139280319213867 
2366	 0.140252515673637 
2367	 0.141431167721748 
2368	 0.142301127314568 
2369	 0.143121525645256 
2370	 0.143947437405586 
2371	 0.144370824098587 
2372	 0.145243972539902 
2373	 0.146629154682159 
2374	 0.147415980696678 
2375	 0.148089125752449 
2376	 0.148793831467628 
2377	 0.149156346917152 
2378	 0.149629145860672 
2379	 0.150320336222649 
2380	 0.150700002908707 
2381	 0.150742933154106 
2382	 0.15099124610424 
2383	 0.151321813464165 
2384	 0.151479989290237 
2385	 0.15160009264946 
2386	 0.15170992910862 
2387	 0.151550799608231 
2388	 0.151695623993874 
2389	 0.152116447687149 
2390	 0.152278766036034 
2391	 0.152530789375305 
2392	 0.15258626639843 
2393	 0.152228280901909 
2394	 0.152306884527206 
2395	 0.152546912431717 
2396	 0.15276026725769 
2397	 0.153260260820389 
2398	 0.15350641310215 
2399	 0.15344500541687 
2400	 0.153738006949425 
2401	 0.154300019145012 
2402	 0.154537782073021 
2403	 0.154757499694824 
2404	 0.154991254210472 
2405	 0.154838129878044 
2406	 0.155126050114632 
2407	 0.155908599495888 
2408	 0.156328812241554 
2409	 0.156700149178505 
2410	 0.157044038176537 
2411	 0.157124042510986 
2412	 0.157463610172272 
2413	 0.158170342445374 
2414	 0.158438220620155 
2415	 0.158449396491051 
2416	 0.158634886145592 
2417	 0.158672302961349 
2418	 0.158742800354958 
2419	 0.159014403820038 
2420	 0.159200325608253 
2421	 0.159243986010551 
2422	 0.159194946289063 
2423	 0.159243941307068 
2424	 0.159183695912361 
2425	 0.158763602375984 
2426	 0.158635601401329 
2427	 0.158578112721443 
2428	 0.158650904893875 
2429	 0.159067675471306 
2430	 0.159109279513359 
2431	 0.159100085496902 
2432	 0.158982872962952 
2433	 0.158487036824226 
2434	 0.158326357603073 
2435	 0.158388018608093 
2436	 0.158193856477737 
2437	 0.157941237092018 
2438	 0.157626569271088 
2439	 0.157221838831902 
2440	 0.156873300671577 
2441	 0.156449317932129 
2442	 0.156230285763741 
2443	 0.156093716621399 
2444	 0.155841246247292 
2445	 0.155765697360039 
2446	 0.155422791838646 
2447	 0.154648035764694 
2448	 0.154617860913277 
2449	 0.154999941587448 
2450	 0.15483483672142 
2451	 0.154894158244133 
2452	 0.154585689306259 
2453	 0.153653025627136 
2454	 0.153197720646858 
2455	 0.152937337756157 
2456	 0.152626186609268 
2457	 0.15187306702137 
2458	 0.151725113391876 
2459	 0.151847586035728 
2460	 0.151459291577339 
2461	 0.15141274034977 
2462	 0.151320397853851 
2463	 0.150378853082657 
2464	 0.149557799100876 
2465	 0.149090990424156 
2466	 0.148439690470695 
2467	 0.148246362805367 
2468	 0.149162352085114 
2469	 0.149282723665237 
2470	 0.149168252944946 
2471	 0.148855179548264 
2472	 0.147855535149574 
2473	 0.147051960229874 
2474	 0.14605025947094 
2475	 0.145480498671532 
2476	 0.144915476441383 
2477	 0.144806072115898 
2478	 0.145692586898804 
2479	 0.145879581570625 
2480	 0.146188229322433 
2481	 0.145972952246666 
2482	 0.144547373056412 
2483	 0.144238039851189 
2484	 0.14453686773777 
2485	 0.144348844885826 
2486	 0.144579276442528 
2487	 0.144520401954651 
2488	 0.143713727593422 
2489	 0.143390730023384 
2490	 0.143478840589523 
2491	 0.14342825114727 
2492	 0.143352672457695 
2493	 0.143233075737953 
2494	 0.143099546432495 
2495	 0.143124908208847 
2496	 0.143155291676521 
2497	 0.143173813819885 
2498	 0.143495321273804 
2499	 0.143385961651802 
2500	 0.14299139380455 
