
Text conversion of header file \A_MEDIDAS\PROJETOS\BRASIL\BLOCO GAVIAO\JACOBINA\CANIF27\sco\CANIF27_004.62_00002.asd.ref
 -------------------------------------------------------------
Intemperizada                                                                                                                                               
The instrument number was  16586/1
New ASD spectrum file: Program version = 6.00 file version = 1.00
Spectrum saved: 10/16/2018 at 09:56:45
VNIR integration time : 34
VNIR channel 1 wavelength = 350 wavelength step = 1
There were 50 samples per data value
xmin = 350 xmax= 2500
ymin= 0 ymax= 1.25
The instrument digitizes spectral values to 16 bits
SWIR1 gain was 214 offset was 2097
SWIR2 gain was 513 offset was 2267
Join between VNIR and SWIR1 was 1000 nm
Join between SWIR1 and SWIR2 was 1830 nm
Absolute Reflectance is Enabled
The Absolute Reflectance File is abs165861.ref
VNIR dark signal subtracted
50 dark measurements taken Tue Oct 16 09:52:54 2018
DCC value was 0
Data is compared to a white reference:
60 white reference measurements taken Tue Oct 16 09:53:02 2018
There was no foreoptic attached
Spectrum file is reflectance data
GPS-Latitude is S0
GPS-Longitude is E0
GPS-Altitude is 0
GPS-UTC is Wed Dec 31 17:00:00 1969

Smart Detector
Serial#  0
Signal (A)  0.000E00
Dark (A)  0.000E00
Ref (A)  0.000E00
Status  0 - Uninitialized
Gain  E-4
Averaging  0
Temp (C)  0.0
Humid (%)  0.0

Reflectance Absolute
Wavelength	CANIF27_4.62_00002.asd.ref
350	 0.131508737802505 
351	 0.132950082421303 
352	 0.127633363008499 
353	 0.123317800462246 
354	 0.124698117375374 
355	 0.125034376978874 
356	 0.126578763127327 
357	 0.126648783683777 
358	 0.123617626726627 
359	 0.126264989376068 
360	 0.130415931344032 
361	 0.132582277059555 
362	 0.130726680159569 
363	 0.126255705952644 
364	 0.126382425427437 
365	 0.131510108709335 
366	 0.132428929209709 
367	 0.13056281208992 
368	 0.128960564732552 
369	 0.130348488688469 
370	 0.13575941324234 
371	 0.138479486107826 
372	 0.136435568332672 
373	 0.13149282336235 
374	 0.134900480508804 
375	 0.136994734406471 
376	 0.135236218571663 
377	 0.135911151766777 
378	 0.137960061430931 
379	 0.139659330248833 
380	 0.139967784285545 
381	 0.139527708292007 
382	 0.140460252761841 
383	 0.141652822494507 
384	 0.14145416021347 
385	 0.142370596528053 
386	 0.143751338124275 
387	 0.144989162683487 
388	 0.145697221159935 
389	 0.145663291215897 
390	 0.145814552903175 
391	 0.146834924817085 
392	 0.148779332637787 
393	 0.149168685078621 
394	 0.148791551589966 
395	 0.149181246757507 
396	 0.149549037218094 
397	 0.150683745741844 
398	 0.151992604136467 
399	 0.152006313204765 
400	 0.152461737394333 
401	 0.152713403105736 
402	 0.152733936905861 
403	 0.15426330268383 
404	 0.154463797807693 
405	 0.154446363449097 
406	 0.155609846115112 
407	 0.155492082238197 
408	 0.155836835503578 
409	 0.157149538397789 
410	 0.158784419298172 
411	 0.158404871821404 
412	 0.15793514251709 
413	 0.158651605248451 
414	 0.159978985786438 
415	 0.160911306738853 
416	 0.161344304680824 
417	 0.1616180986166 
418	 0.162479594349861 
419	 0.163453131914139 
420	 0.164387241005898 
421	 0.165321543812752 
422	 0.165843650698662 
423	 0.166648089885712 
424	 0.167740926146507 
425	 0.167902737855911 
426	 0.169066309928894 
427	 0.170300483703613 
428	 0.170588254928589 
429	 0.171323478221893 
430	 0.172260850667953 
431	 0.173093169927597 
432	 0.173581495881081 
433	 0.174256980419159 
434	 0.175394102931023 
435	 0.176793679594994 
436	 0.177649989724159 
437	 0.178223133087158 
438	 0.179037496447563 
439	 0.18035563826561 
440	 0.181230917572975 
441	 0.182336285710335 
442	 0.183388993144035 
443	 0.183640331029892 
444	 0.184510603547096 
445	 0.185441687703133 
446	 0.186045423150063 
447	 0.186620861291885 
448	 0.187003567814827 
449	 0.187503769993782 
450	 0.188290804624557 
451	 0.188422024250031 
452	 0.188666194677353 
453	 0.189258709549904 
454	 0.189965337514877 
455	 0.190408632159233 
456	 0.190740957856178 
457	 0.19114924967289 
458	 0.191733673214912 
459	 0.192243710160255 
460	 0.192741304636002 
461	 0.193331986665726 
462	 0.193784698843956 
463	 0.194279804825783 
464	 0.19483982026577 
465	 0.195338428020477 
466	 0.195943370461464 
467	 0.196449548006058 
468	 0.196781009435654 
469	 0.197284549474716 
470	 0.19793801009655 
471	 0.198600172996521 
472	 0.19912938773632 
473	 0.199731990695 
474	 0.20040425658226 
475	 0.201102450489998 
476	 0.201757088303566 
477	 0.202425047755241 
478	 0.20308355987072 
479	 0.20372773706913 
480	 0.204444780945778 
481	 0.205192610621452 
482	 0.205931589007378 
483	 0.206617400050163 
484	 0.207147836685181 
485	 0.207807287573814 
486	 0.20865835249424 
487	 0.209429815411568 
488	 0.21007864177227 
489	 0.210649460554123 
490	 0.211211085319519 
491	 0.211814761161804 
492	 0.212218835949898 
493	 0.21251405775547 
494	 0.212982133030891 
495	 0.213494092226028 
496	 0.213985115289688 
497	 0.214478611946106 
498	 0.215135335922241 
499	 0.215824156999588 
500	 0.216561377048492 
501	 0.21738289296627 
502	 0.218233868479729 
503	 0.218966633081436 
504	 0.21961173415184 
505	 0.220334857702255 
506	 0.221038490533829 
507	 0.22164760529995 
508	 0.222206309437752 
509	 0.223034754395485 
510	 0.223631769418716 
511	 0.224034190177917 
512	 0.224489331245422 
513	 0.225179493427277 
514	 0.225782707333565 
515	 0.226218476891518 
516	 0.226682230830193 
517	 0.227149456739426 
518	 0.227608129382133 
519	 0.228047177195549 
520	 0.22845034301281 
521	 0.228923156857491 
522	 0.229380950331688 
523	 0.229683980345726 
524	 0.230013787746429 
525	 0.230339169502258 
526	 0.23064212501049 
527	 0.23094454407692 
528	 0.2313282340765 
529	 0.231655493378639 
530	 0.231839254498482 
531	 0.232154428958893 
532	 0.232417896389961 
533	 0.232640638947487 
534	 0.232951447367668 
535	 0.233322620391846 
536	 0.233637362718582 
537	 0.233874022960663 
538	 0.23418702185154 
539	 0.234548464417458 
540	 0.234898969531059 
541	 0.235209494829178 
542	 0.235649332404137 
543	 0.236087828874588 
544	 0.2364721596241 
545	 0.236825436353683 
546	 0.237104341387749 
547	 0.237410426139832 
548	 0.237779960036278 
549	 0.238053202629089 
550	 0.238333895802498 
551	 0.238642349839211 
552	 0.238961279392242 
553	 0.239258125424385 
554	 0.239479303359985 
555	 0.239628493785858 
556	 0.239770799875259 
557	 0.239934012293816 
558	 0.240166455507278 
559	 0.240492254495621 
560	 0.240898191928864 
561	 0.241151615977287 
562	 0.241278603672981 
563	 0.241445019841194 
564	 0.241710111498833 
565	 0.241946935653687 
566	 0.242103278636932 
567	 0.242258936166763 
568	 0.242346420884132 
569	 0.242344304919243 
570	 0.242258712649345 
571	 0.242125064134598 
572	 0.242061883211136 
573	 0.242099985480309 
574	 0.242202088236809 
575	 0.242357939481735 
576	 0.242548540234566 
577	 0.242736682295799 
578	 0.242854043841362 
579	 0.242968887090683 
580	 0.243055254220963 
581	 0.243059575557709 
582	 0.242934316396713 
583	 0.242861062288284 
584	 0.242834076285362 
585	 0.242679178714752 
586	 0.2423947006464 
587	 0.242171496152878 
588	 0.242167666554451 
589	 0.242423057556152 
590	 0.242624178528786 
591	 0.242709264159203 
592	 0.242711246013641 
593	 0.242500334978104 
594	 0.242294952273369 
595	 0.242193832993507 
596	 0.242134883999825 
597	 0.241977214813232 
598	 0.241712242364883 
599	 0.241377592086792 
600	 0.241032108664513 
601	 0.240673765540123 
602	 0.240341424942017 
603	 0.240072041749954 
604	 0.239764332771301 
605	 0.239506646990776 
606	 0.239359498023987 
607	 0.239321261644363 
608	 0.239201903343201 
609	 0.239019706845284 
610	 0.238831669092178 
611	 0.238623112440109 
612	 0.238383650779724 
613	 0.238107055425644 
614	 0.237798735499382 
615	 0.237522333860397 
616	 0.237311482429504 
617	 0.237125039100647 
618	 0.23681528866291 
619	 0.236508950591087 
620	 0.236228615045547 
621	 0.235967487096786 
622	 0.235716849565506 
623	 0.235473185777664 
624	 0.235224023461342 
625	 0.234957903623581 
626	 0.234725400805473 
627	 0.234475657343864 
628	 0.234192937612534 
629	 0.233951091766357 
630	 0.233642920851707 
631	 0.233341529965401 
632	 0.233125612139702 
633	 0.232855290174484 
634	 0.232558116316795 
635	 0.232272014021873 
636	 0.232034519314766 
637	 0.231836125254631 
638	 0.231591671705246 
639	 0.231288805603981 
640	 0.231073573231697 
641	 0.230800583958626 
642	 0.230502858757973 
643	 0.230250000953674 
644	 0.229988247156143 
645	 0.229739055037498 
646	 0.229486465454102 
647	 0.229193776845932 
648	 0.22897270321846 
649	 0.228736236691475 
650	 0.228445425629616 
651	 0.228218331933022 
652	 0.227929756045341 
653	 0.227637559175491 
654	 0.227427735924721 
655	 0.227233156561852 
656	 0.22698013484478 
657	 0.226674452424049 
658	 0.226386278867722 
659	 0.226119428873062 
660	 0.225899323821068 
661	 0.225710362195969 
662	 0.225458264350891 
663	 0.225222945213318 
664	 0.225007280707359 
665	 0.224789991974831 
666	 0.224558591842651 
667	 0.224317222833633 
668	 0.224073842167854 
669	 0.223843619227409 
670	 0.223714977502823 
671	 0.223481208086014 
672	 0.223112717270851 
673	 0.222945928573608 
674	 0.222791329026222 
675	 0.222599923610687 
676	 0.222376152873039 
677	 0.22217321395874 
678	 0.221961796283722 
679	 0.221756845712662 
680	 0.221592202782631 
681	 0.221383616328239 
682	 0.221180871129036 
683	 0.22100505232811 
684	 0.220810979604721 
685	 0.22063335776329 
686	 0.220470204949379 
687	 0.220304474234581 
688	 0.220094636082649 
689	 0.219947889447212 
690	 0.219828844070435 
691	 0.219645410776138 
692	 0.21951051056385 
693	 0.219425871968269 
694	 0.219337120652199 
695	 0.21914453804493 
696	 0.219007417559624 
697	 0.21892686188221 
698	 0.218869209289551 
699	 0.218818932771683 
700	 0.218679293990135 
701	 0.218548342585564 
702	 0.218551307916641 
703	 0.218484595417976 
704	 0.218394950032234 
705	 0.218308180570602 
706	 0.218222215771675 
707	 0.218209981918335 
708	 0.218150928616524 
709	 0.218029230833054 
710	 0.218083590269089 
711	 0.218067854642868 
712	 0.218037679791451 
713	 0.218085125088692 
714	 0.218073472380638 
715	 0.218049749732018 
716	 0.218031391501427 
717	 0.218024343252182 
718	 0.218122884631157 
719	 0.218160688877106 
720	 0.21811018884182 
721	 0.218145534396172 
722	 0.218179196119308 
723	 0.218270018696785 
724	 0.218412920832634 
725	 0.218359485268593 
726	 0.218346476554871 
727	 0.218446254730225 
728	 0.21862168610096 
729	 0.218655124306679 
730	 0.218719601631165 
731	 0.218828529119492 
732	 0.218866720795631 
733	 0.21891887485981 
734	 0.219050034880638 
735	 0.219234958291054 
736	 0.219322994351387 
737	 0.219482973217964 
738	 0.219618991017342 
739	 0.21965616941452 
740	 0.219765111804008 
741	 0.219925180077553 
742	 0.220117628574371 
743	 0.220313921570778 
744	 0.220455721020699 
745	 0.220602110028267 
746	 0.220781087875366 
747	 0.220981284976006 
748	 0.221138656139374 
749	 0.221285119652748 
750	 0.221451967954636 
751	 0.22164548933506 
752	 0.221855506300926 
753	 0.222078070044518 
754	 0.222294226288795 
755	 0.222428545355797 
756	 0.222629740834236 
757	 0.222880125045776 
758	 0.223089352250099 
759	 0.223192408680916 
760	 0.223371356725693 
761	 0.223638668656349 
762	 0.223871126770973 
763	 0.224073752760887 
764	 0.22425477206707 
765	 0.224417731165886 
766	 0.224558219313622 
767	 0.224745318293571 
768	 0.224983036518097 
769	 0.225232094526291 
770	 0.225391030311584 
771	 0.225577250123024 
772	 0.225790545344353 
773	 0.225987881422043 
774	 0.226123750209808 
775	 0.226294741034508 
776	 0.226488471031189 
777	 0.226641789078712 
778	 0.226807564496994 
779	 0.226981371641159 
780	 0.2271678596735 
781	 0.227373793721199 
782	 0.227482751011848 
783	 0.22759822010994 
784	 0.227765575051308 
785	 0.227894946932793 
786	 0.227943792939186 
787	 0.22798103094101 
788	 0.228065073490143 
789	 0.228159725666046 
790	 0.228251025080681 
791	 0.228344529867172 
792	 0.228444010019302 
793	 0.228514015674591 
794	 0.228590056300163 
795	 0.228681951761246 
796	 0.228757828474045 
797	 0.228641137480736 
798	 0.228552401065826 
799	 0.228557020425797 
800	 0.228571549057961 
801	 0.228629499673843 
802	 0.228649735450745 
803	 0.228606715798378 
804	 0.228555649518967 
805	 0.228457629680634 
806	 0.22838993370533 
807	 0.228379979729652 
808	 0.22833526134491 
809	 0.228200107812881 
810	 0.228042289614677 
811	 0.227937743067741 
812	 0.227895110845566 
813	 0.227783128619194 
814	 0.227638930082321 
815	 0.227539032697678 
816	 0.227463945746422 
817	 0.227317556738853 
818	 0.227124840021133 
819	 0.226962059736252 
820	 0.226812407374382 
821	 0.226632371544838 
822	 0.226473167538643 
823	 0.226415008306503 
824	 0.226258039474487 
825	 0.226054027676582 
826	 0.225864320993423 
827	 0.225718140602112 
828	 0.22546873986721 
829	 0.225271716713905 
830	 0.225160881876945 
831	 0.2249755859375 
832	 0.224777668714523 
833	 0.224613890051842 
834	 0.22447906434536 
835	 0.224291503429413 
836	 0.224055036902428 
837	 0.223825678229332 
838	 0.223638772964478 
839	 0.223459675908089 
840	 0.223211258649826 
841	 0.222985535860062 
842	 0.222869157791138 
843	 0.222817718982697 
844	 0.222600743174553 
845	 0.222308069467545 
846	 0.222095161676407 
847	 0.221923425793648 
848	 0.221748247742653 
849	 0.22158470749855 
850	 0.221450194716454 
851	 0.221275597810745 
852	 0.220986157655716 
853	 0.220668569207191 
854	 0.220479354262352 
855	 0.220500245690346 
856	 0.220476865768433 
857	 0.220327600836754 
858	 0.22009950876236 
859	 0.21983103454113 
860	 0.219634965062141 
861	 0.219511210918427 
862	 0.2193903028965 
863	 0.21932028234005 
864	 0.21917188167572 
865	 0.21897192299366 
866	 0.218851447105408 
867	 0.218737453222275 
868	 0.218617156147957 
869	 0.218478053808212 
870	 0.218321725726128 
871	 0.218266069889069 
872	 0.218250378966331 
873	 0.218178495764732 
874	 0.217980802059174 
875	 0.217871025204659 
876	 0.217793568968773 
877	 0.217728272080421 
878	 0.217714294791222 
879	 0.217757076025009 
880	 0.217703074216843 
881	 0.217559546232224 
882	 0.217488780617714 
883	 0.217403933405876 
884	 0.21733695268631 
885	 0.217310905456543 
886	 0.217321187257767 
887	 0.21732959151268 
888	 0.217350453138351 
889	 0.217367678880692 
890	 0.217336773872375 
891	 0.217282950878143 
892	 0.21723710000515 
893	 0.21725045144558 
894	 0.217364057898521 
895	 0.217414185404778 
896	 0.217419072985649 
897	 0.217424854636192 
898	 0.217471584677696 
899	 0.217531308531761 
900	 0.217569351196289 
901	 0.217588648200035 
902	 0.217630118131638 
903	 0.217756524682045 
904	 0.217885166406631 
905	 0.217992916703224 
906	 0.2181027084589 
907	 0.218129560351372 
908	 0.218131959438324 
909	 0.21819494664669 
910	 0.218384951353073 
911	 0.218654364347458 
912	 0.218845590949059 
913	 0.218877479434013 
914	 0.21880778670311 
915	 0.219024568796158 
916	 0.219261839985847 
917	 0.219421312212944 
918	 0.219526693224907 
919	 0.219611003994942 
920	 0.219720855355263 
921	 0.219913065433502 
922	 0.220173850655556 
923	 0.220257490873337 
924	 0.220363765954971 
925	 0.220577999949455 
926	 0.22085776925087 
927	 0.220954537391663 
928	 0.221128910779953 
929	 0.221339344978333 
930	 0.221515506505966 
931	 0.221726208925247 
932	 0.221940740942955 
933	 0.22210967540741 
934	 0.222247421741486 
935	 0.222467243671417 
936	 0.222717225551605 
937	 0.22290326654911 
938	 0.223052710294724 
939	 0.223322093486786 
940	 0.223547279834747 
941	 0.223695263266563 
942	 0.223835602402687 
943	 0.224082186818123 
944	 0.224335432052612 
945	 0.224502682685852 
946	 0.224623993039131 
947	 0.224805936217308 
948	 0.225012645125389 
949	 0.225203603506088 
950	 0.225392758846283 
951	 0.225594401359558 
952	 0.225713506340981 
953	 0.225947394967079 
954	 0.22618967294693 
955	 0.226336479187012 
956	 0.226538971066475 
957	 0.226745560765266 
958	 0.226902395486832 
959	 0.227056682109833 
960	 0.227370426058769 
961	 0.227558702230453 
962	 0.227769672870636 
963	 0.228033363819122 
964	 0.228210240602493 
965	 0.228329122066498 
966	 0.228532031178474 
967	 0.228814259171486 
968	 0.229070708155632 
969	 0.229251429438591 
970	 0.22942253947258 
971	 0.229605719447136 
972	 0.229789957404137 
973	 0.229942992329597 
974	 0.230059072375298 
975	 0.230170980095863 
976	 0.230290070176125 
977	 0.230389505624771 
978	 0.230628460645676 
979	 0.230852067470551 
980	 0.230982929468155 
981	 0.231086999177933 
982	 0.231308281421661 
983	 0.231434255838394 
984	 0.231491103768349 
985	 0.231582850217819 
986	 0.231545299291611 
987	 0.231550663709641 
988	 0.231699243187904 
989	 0.231950327754021 
990	 0.23208712041378 
991	 0.232206076383591 
992	 0.232350364327431 
993	 0.232495173811913 
994	 0.232575073838234 
995	 0.232646152377129 
996	 0.23274490237236 
997	 0.232839703559875 
998	 0.232881978154182 
999	 0.232888832688332 
1000	 0.232981950044632 
1001	 0.227803379297256 
1002	 0.2278693318367 
1003	 0.227923780679703 
1004	 0.227970659732819 
1005	 0.228089168667793 
1006	 0.228080973029137 
1007	 0.22808164358139 
1008	 0.228173866868019 
1009	 0.228210434317589 
1010	 0.228225633502007 
1011	 0.228240624070168 
1012	 0.228217333555222 
1013	 0.228266924619675 
1014	 0.228327751159668 
1015	 0.22839492559433 
1016	 0.228540137410164 
1017	 0.22865828871727 
1018	 0.228629350662231 
1019	 0.228614255785942 
1020	 0.22864605486393 
1021	 0.228565111756325 
1022	 0.228485688567162 
1023	 0.228541627526283 
1024	 0.228566884994507 
1025	 0.228580057621002 
1026	 0.22862121462822 
1027	 0.228708863258362 
1028	 0.228742659091949 
1029	 0.228767186403275 
1030	 0.228770881891251 
1031	 0.228735223412514 
1032	 0.228740066289902 
1033	 0.228726997971535 
1034	 0.228638604283333 
1035	 0.228583544492722 
1036	 0.228597968816757 
1037	 0.228581473231316 
1038	 0.228556051850319 
1039	 0.22852435708046 
1040	 0.228475332260132 
1041	 0.228422299027443 
1042	 0.228325173258781 
1043	 0.228323757648468 
1044	 0.228375822305679 
1045	 0.228389412164688 
1046	 0.22851251065731 
1047	 0.228561282157898 
1048	 0.228532552719116 
1049	 0.228498041629791 
1050	 0.228337004780769 
1051	 0.228291511535645 
1052	 0.228282317519188 
1053	 0.228302493691444 
1054	 0.228322088718414 
1055	 0.228374764323235 
1056	 0.228378847241402 
1057	 0.228396445512772 
1058	 0.228342413902283 
1059	 0.228179886937141 
1060	 0.228185385465622 
1061	 0.228179767727852 
1062	 0.228139385581017 
1063	 0.228190407156944 
1064	 0.22819972038269 
1065	 0.228152364492416 
1066	 0.228107959032059 
1067	 0.228064820170403 
1068	 0.228049486875534 
1069	 0.228029176592827 
1070	 0.227981016039848 
1071	 0.227965384721756 
1072	 0.227978527545929 
1073	 0.227994203567505 
1074	 0.227972134947777 
1075	 0.227999806404114 
1076	 0.228039041161537 
1077	 0.228035107254982 
1078	 0.22809873521328 
1079	 0.228166967630386 
1080	 0.228185132145882 
1081	 0.228221669793129 
1082	 0.228268474340439 
1083	 0.228251054883003 
1084	 0.228268802165985 
1085	 0.228349611163139 
1086	 0.228392615914345 
1087	 0.228403255343437 
1088	 0.228482648730278 
1089	 0.228503704071045 
1090	 0.228492513298988 
1091	 0.228587597608566 
1092	 0.228635847568512 
1093	 0.228728979825974 
1094	 0.228819712996483 
1095	 0.228821367025375 
1096	 0.228870302438736 
1097	 0.228982210159302 
1098	 0.229129195213318 
1099	 0.229273170232773 
1100	 0.229375422000885 
1101	 0.229472070932388 
1102	 0.229540184140205 
1103	 0.229574382305145 
1104	 0.229635670781136 
1105	 0.229762881994247 
1106	 0.229898646473885 
1107	 0.230060994625092 
1108	 0.230185881257057 
1109	 0.230235204100609 
1110	 0.230315372347832 
1111	 0.230395510792732 
1112	 0.230469822883606 
1113	 0.230622977018356 
1114	 0.230766102671623 
1115	 0.230893567204475 
1116	 0.231063082814217 
1117	 0.231215864419937 
1118	 0.23139114677906 
1119	 0.231488212943077 
1120	 0.231550082564354 
1121	 0.231665924191475 
1122	 0.231728300452232 
1123	 0.231805622577667 
1124	 0.23194508254528 
1125	 0.232016488909721 
1126	 0.232124239206314 
1127	 0.232262283563614 
1128	 0.232392847537994 
1129	 0.232592612504959 
1130	 0.232734426856041 
1131	 0.232865869998932 
1132	 0.233016148209572 
1133	 0.233089596033096 
1134	 0.233211606740952 
1135	 0.233345746994019 
1136	 0.233531177043915 
1137	 0.233721137046814 
1138	 0.233919411897659 
1139	 0.234089180827141 
1140	 0.234204694628716 
1141	 0.234327748417854 
1142	 0.234505772590637 
1143	 0.234670668840408 
1144	 0.234835371375084 
1145	 0.235028833150864 
1146	 0.235205665230751 
1147	 0.235344797372818 
1148	 0.23549573123455 
1149	 0.23566934466362 
1150	 0.23582611978054 
1151	 0.235984057188034 
1152	 0.236151233315468 
1153	 0.236384660005569 
1154	 0.236584648489952 
1155	 0.236745223402977 
1156	 0.236965969204903 
1157	 0.237214475870132 
1158	 0.237449422478676 
1159	 0.237674385309219 
1160	 0.237892180681229 
1161	 0.238090023398399 
1162	 0.238274782896042 
1163	 0.238527655601501 
1164	 0.238854601979256 
1165	 0.239163801074028 
1166	 0.239440590143204 
1167	 0.239707678556442 
1168	 0.239981293678284 
1169	 0.240225777029991 
1170	 0.240484640002251 
1171	 0.240772783756256 
1172	 0.241031110286713 
1173	 0.241264909505844 
1174	 0.241489797830582 
1175	 0.241769805550575 
1176	 0.2420953810215 
1177	 0.2424176633358 
1178	 0.242773219943047 
1179	 0.243087232112885 
1180	 0.243329346179962 
1181	 0.243607953190804 
1182	 0.243892922997475 
1183	 0.244172960519791 
1184	 0.244438827037811 
1185	 0.244763448834419 
1186	 0.245127633213997 
1187	 0.245466440916061 
1188	 0.245840549468994 
1189	 0.246179431676865 
1190	 0.246454149484634 
1191	 0.246738597750664 
1192	 0.247049242258072 
1193	 0.247355818748474 
1194	 0.247657015919685 
1195	 0.247959852218628 
1196	 0.248260632157326 
1197	 0.248566940426826 
1198	 0.248910412192345 
1199	 0.249233797192574 
1200	 0.249562248587608 
1201	 0.249903246760368 
1202	 0.25021967291832 
1203	 0.250533223152161 
1204	 0.250866919755936 
1205	 0.251175165176392 
1206	 0.251500070095062 
1207	 0.251857727766037 
1208	 0.252206116914749 
1209	 0.252534329891205 
1210	 0.252876371145248 
1211	 0.253262788057327 
1212	 0.253629118204117 
1213	 0.253941655158997 
1214	 0.254305094480515 
1215	 0.254647463560104 
1216	 0.254939496517181 
1217	 0.255309253931046 
1218	 0.255661517381668 
1219	 0.256001532077789 
1220	 0.256331712007523 
1221	 0.256708323955536 
1222	 0.257098972797394 
1223	 0.257450342178345 
1224	 0.257815212011337 
1225	 0.258177220821381 
1226	 0.25849175453186 
1227	 0.258855521678925 
1228	 0.259257704019547 
1229	 0.259611576795578 
1230	 0.259940713644028 
1231	 0.260296732187271 
1232	 0.260690212249756 
1233	 0.261060476303101 
1234	 0.261476218700409 
1235	 0.261914432048798 
1236	 0.262259960174561 
1237	 0.262649029493332 
1238	 0.263034969568253 
1239	 0.263390421867371 
1240	 0.263753950595856 
1241	 0.264147639274597 
1242	 0.264520019292831 
1243	 0.264865100383759 
1244	 0.265241235494614 
1245	 0.265641957521439 
1246	 0.266021192073822 
1247	 0.266409248113632 
1248	 0.266771107912064 
1249	 0.267093241214752 
1250	 0.267429053783417 
1251	 0.267808198928833 
1252	 0.268210560083389 
1253	 0.268638610839844 
1254	 0.269084304571152 
1255	 0.269474476575851 
1256	 0.26982456445694 
1257	 0.270166605710983 
1258	 0.270498514175415 
1259	 0.270891636610031 
1260	 0.271341532468796 
1261	 0.271741539239883 
1262	 0.272178262472153 
1263	 0.272576570510864 
1264	 0.27290403842926 
1265	 0.273265898227692 
1266	 0.273629695177078 
1267	 0.274006575345993 
1268	 0.274406552314758 
1269	 0.274797290563583 
1270	 0.275182366371155 
1271	 0.275602757930756 
1272	 0.276007980108261 
1273	 0.276356846094131 
1274	 0.276777625083923 
1275	 0.277214527130127 
1276	 0.277590662240982 
1277	 0.277995049953461 
1278	 0.278399616479874 
1279	 0.278722167015076 
1280	 0.279099643230438 
1281	 0.27953565120697 
1282	 0.279921263456345 
1283	 0.280272364616394 
1284	 0.280665576457977 
1285	 0.281065672636032 
1286	 0.281431496143341 
1287	 0.281814813613892 
1288	 0.28217950463295 
1289	 0.282495826482773 
1290	 0.282852292060852 
1291	 0.283227056264877 
1292	 0.283610194921494 
1293	 0.284004777669907 
1294	 0.284324169158936 
1295	 0.284652411937714 
1296	 0.285030692815781 
1297	 0.285375416278839 
1298	 0.285770982503891 
1299	 0.286184072494507 
1300	 0.286504209041595 
1301	 0.286830931901932 
1302	 0.287188321352005 
1303	 0.28755584359169 
1304	 0.287941008806229 
1305	 0.288317501544952 
1306	 0.288719654083252 
1307	 0.289075642824173 
1308	 0.289355576038361 
1309	 0.289735555648804 
1310	 0.290164560079575 
1311	 0.290576428174973 
1312	 0.29102486371994 
1313	 0.291474223136902 
1314	 0.291910648345947 
1315	 0.292340725660324 
1316	 0.292781710624695 
1317	 0.293254494667053 
1318	 0.293667048215866 
1319	 0.294084161520004 
1320	 0.294538229703903 
1321	 0.294945657253265 
1322	 0.295309603214264 
1323	 0.295708209276199 
1324	 0.29613134264946 
1325	 0.29655596613884 
1326	 0.2969631254673 
1327	 0.297379225492477 
1328	 0.297798484563828 
1329	 0.298193037509918 
1330	 0.298609524965286 
1331	 0.299048393964767 
1332	 0.299480676651001 
1333	 0.29991427063942 
1334	 0.300331383943558 
1335	 0.30075392127037 
1336	 0.301174461841583 
1337	 0.301546812057495 
1338	 0.30195477604866 
1339	 0.302430838346481 
1340	 0.30283784866333 
1341	 0.303229749202728 
1342	 0.303586333990097 
1343	 0.303938657045364 
1344	 0.30426087975502 
1345	 0.30459862947464 
1346	 0.305023014545441 
1347	 0.305401206016541 
1348	 0.305716514587402 
1349	 0.306050390005112 
1350	 0.306374400854111 
1351	 0.306682139635086 
1352	 0.30697837471962 
1353	 0.307263970375061 
1354	 0.307514786720276 
1355	 0.307809203863144 
1356	 0.308113485574722 
1357	 0.308432191610336 
1358	 0.30878609418869 
1359	 0.309117078781128 
1360	 0.309437304735184 
1361	 0.309773236513138 
1362	 0.310110300779343 
1363	 0.310442447662354 
1364	 0.310785353183746 
1365	 0.311117202043533 
1366	 0.311454236507416 
1367	 0.311769396066666 
1368	 0.312089145183563 
1369	 0.312355250120163 
1370	 0.31263279914856 
1371	 0.312886267900467 
1372	 0.313084036111832 
1373	 0.313261061906815 
1374	 0.313376247882843 
1375	 0.313441514968872 
1376	 0.313514769077301 
1377	 0.313549041748047 
1378	 0.313539147377014 
1379	 0.31343537569046 
1380	 0.313184380531311 
1381	 0.312884271144867 
1382	 0.312316030263901 
1383	 0.311642348766327 
1384	 0.310634732246399 
1385	 0.30940392613411 
1386	 0.307909965515137 
1387	 0.30610129237175 
1388	 0.304188460111618 
1389	 0.301891177892685 
1390	 0.299829989671707 
1391	 0.29756024479866 
1392	 0.295652329921722 
1393	 0.293802797794342 
1394	 0.292327851057053 
1395	 0.291098266839981 
1396	 0.290140479803085 
1397	 0.289560705423355 
1398	 0.289097905158997 
1399	 0.288896948099136 
1400	 0.288776040077209 
1401	 0.288764864206314 
1402	 0.288805037736893 
1403	 0.28883370757103 
1404	 0.288917630910873 
1405	 0.289015382528305 
1406	 0.289146333932877 
1407	 0.289333879947662 
1408	 0.289569586515427 
1409	 0.289783477783203 
1410	 0.290043622255325 
1411	 0.290418118238449 
1412	 0.290773808956146 
1413	 0.291388809680939 
1414	 0.292102605104446 
1415	 0.293124198913574 
1416	 0.29435071349144 
1417	 0.295815736055374 
1418	 0.297654986381531 
1419	 0.299424260854721 
1420	 0.301473468542099 
1421	 0.303274691104889 
1422	 0.305122226476669 
1423	 0.306702196598053 
1424	 0.308159470558167 
1425	 0.309398084878922 
1426	 0.310421228408813 
1427	 0.311302810907364 
1428	 0.311965614557266 
1429	 0.312554121017456 
1430	 0.31295645236969 
1431	 0.313343226909637 
1432	 0.313635051250458 
1433	 0.31388995051384 
1434	 0.314082741737366 
1435	 0.314251720905304 
1436	 0.314353317022324 
1437	 0.314452409744263 
1438	 0.31462225317955 
1439	 0.314783960580826 
1440	 0.314966142177582 
1441	 0.315173268318176 
1442	 0.315325796604156 
1443	 0.315483063459396 
1444	 0.315703809261322 
1445	 0.315938264131546 
1446	 0.316227853298187 
1447	 0.316577941179276 
1448	 0.316931843757629 
1449	 0.31732839345932 
1450	 0.317712932825089 
1451	 0.318108975887299 
1452	 0.318502366542816 
1453	 0.318891167640686 
1454	 0.319299310445786 
1455	 0.319723635911942 
1456	 0.320148557424545 
1457	 0.320572376251221 
1458	 0.32102569937706 
1459	 0.321503758430481 
1460	 0.321958929300308 
1461	 0.322432518005371 
1462	 0.322901844978333 
1463	 0.32334691286087 
1464	 0.323811709880829 
1465	 0.324295848608017 
1466	 0.32476332783699 
1467	 0.325217694044113 
1468	 0.325690239667892 
1469	 0.326167494058609 
1470	 0.32665890455246 
1471	 0.327174127101898 
1472	 0.327668040990829 
1473	 0.328170984983444 
1474	 0.328653872013092 
1475	 0.329110890626907 
1476	 0.329573750495911 
1477	 0.330047696828842 
1478	 0.330498993396759 
1479	 0.330943435430527 
1480	 0.331410706043243 
1481	 0.331893384456635 
1482	 0.332334637641907 
1483	 0.332755416631699 
1484	 0.333177179098129 
1485	 0.333546936511993 
1486	 0.333922863006592 
1487	 0.334311246871948 
1488	 0.334676414728165 
1489	 0.335074543952942 
1490	 0.335458755493164 
1491	 0.33578559756279 
1492	 0.336118549108505 
1493	 0.336443811655045 
1494	 0.33673307299614 
1495	 0.337025582790375 
1496	 0.337341696023941 
1497	 0.337615609169006 
1498	 0.337839990854263 
1499	 0.338106542825699 
1500	 0.338384360074997 
1501	 0.338638454675674 
1502	 0.338901937007904 
1503	 0.33914315700531 
1504	 0.339367687702179 
1505	 0.339574426412582 
1506	 0.339755833148956 
1507	 0.339948505163193 
1508	 0.340120077133179 
1509	 0.340309828519821 
1510	 0.340535014867783 
1511	 0.340722531080246 
1512	 0.340859979391098 
1513	 0.34106382727623 
1514	 0.341305583715439 
1515	 0.341507494449615 
1516	 0.341734260320663 
1517	 0.3419468998909 
1518	 0.34210330247879 
1519	 0.342286109924316 
1520	 0.342504233121872 
1521	 0.342705249786377 
1522	 0.342881441116333 
1523	 0.343093693256378 
1524	 0.34333935379982 
1525	 0.343552559614182 
1526	 0.343757808208466 
1527	 0.343968480825424 
1528	 0.344159424304962 
1529	 0.344370007514954 
1530	 0.34459263086319 
1531	 0.344828009605408 
1532	 0.345081329345703 
1533	 0.345317184925079 
1534	 0.345549464225769 
1535	 0.345791429281235 
1536	 0.346052765846252 
1537	 0.346328496932983 
1538	 0.346587836742401 
1539	 0.346842110157013 
1540	 0.347081542015076 
1541	 0.347331315279007 
1542	 0.347642034292221 
1543	 0.347976684570313 
1544	 0.348281353712082 
1545	 0.348560631275177 
1546	 0.348846793174744 
1547	 0.349163979291916 
1548	 0.349504083395004 
1549	 0.349821150302887 
1550	 0.35013073682785 
1551	 0.350440710783005 
1552	 0.350735604763031 
1553	 0.351084798574448 
1554	 0.351458579301834 
1555	 0.351785987615585 
1556	 0.352115452289581 
1557	 0.352476388216019 
1558	 0.352837473154068 
1559	 0.353223651647568 
1560	 0.353666216135025 
1561	 0.354087680578232 
1562	 0.354477792978287 
1563	 0.354871451854706 
1564	 0.355243057012558 
1565	 0.355626136064529 
1566	 0.356047421693802 
1567	 0.356474161148071 
1568	 0.356871902942657 
1569	 0.357254326343536 
1570	 0.357652932405472 
1571	 0.358023524284363 
1572	 0.358434796333313 
1573	 0.358884364366531 
1574	 0.359324306249619 
1575	 0.359781354665756 
1576	 0.360215574502945 
1577	 0.360646903514862 
1578	 0.361061185598373 
1579	 0.361449390649796 
1580	 0.361880958080292 
1581	 0.362316817045212 
1582	 0.362754434347153 
1583	 0.363219439983368 
1584	 0.363644897937775 
1585	 0.364039450883865 
1586	 0.364497780799866 
1587	 0.364972710609436 
1588	 0.365441232919693 
1589	 0.365961909294128 
1590	 0.366423785686493 
1591	 0.366843491792679 
1592	 0.367278635501862 
1593	 0.367691248655319 
1594	 0.368130773305893 
1595	 0.368589848279953 
1596	 0.369039535522461 
1597	 0.369505941867828 
1598	 0.369934618473053 
1599	 0.370328962802887 
1600	 0.370754212141037 
1601	 0.371169298887253 
1602	 0.371614247560501 
1603	 0.372078210115433 
1604	 0.372554391622543 
1605	 0.373069167137146 
1606	 0.373552471399307 
1607	 0.374048382043839 
1608	 0.374501168727875 
1609	 0.374904483556747 
1610	 0.375325500965118 
1611	 0.375732243061066 
1612	 0.376170188188553 
1613	 0.376621186733246 
1614	 0.377055794000626 
1615	 0.377493917942047 
1616	 0.377945750951767 
1617	 0.378396183252335 
1618	 0.378871142864227 
1619	 0.379388391971588 
1620	 0.379838764667511 
1621	 0.380266934633255 
1622	 0.380691200494766 
1623	 0.381090015172958 
1624	 0.381485432386398 
1625	 0.381850868463516 
1626	 0.382255434989929 
1627	 0.382677912712097 
1628	 0.383081704378128 
1629	 0.383515745401382 
1630	 0.38392761349678 
1631	 0.384284734725952 
1632	 0.384686172008514 
1633	 0.385130345821381 
1634	 0.385531097650528 
1635	 0.385943621397018 
1636	 0.386311799287796 
1637	 0.386591017246246 
1638	 0.386979252099991 
1639	 0.387395918369293 
1640	 0.387814700603485 
1641	 0.388342261314392 
1642	 0.388752341270447 
1643	 0.389064520597458 
1644	 0.38945671916008 
1645	 0.389838755130768 
1646	 0.390232503414154 
1647	 0.390692919492722 
1648	 0.391090989112854 
1649	 0.391454935073853 
1650	 0.391830146312714 
1651	 0.392169535160065 
1652	 0.39254891872406 
1653	 0.392950981855392 
1654	 0.393324017524719 
1655	 0.393712967634201 
1656	 0.394100397825241 
1657	 0.394472301006317 
1658	 0.394840896129608 
1659	 0.395202428102493 
1660	 0.395574897527695 
1661	 0.395962029695511 
1662	 0.396302878856659 
1663	 0.396622270345688 
1664	 0.396990656852722 
1665	 0.397352784872055 
1666	 0.397738307714462 
1667	 0.398085713386536 
1668	 0.398407280445099 
1669	 0.398730546236038 
1670	 0.399051636457443 
1671	 0.399395704269409 
1672	 0.399727314710617 
1673	 0.400035470724106 
1674	 0.400378704071045 
1675	 0.400725990533829 
1676	 0.401044189929962 
1677	 0.401371330022812 
1678	 0.401653319597244 
1679	 0.401942551136017 
1680	 0.402271121740341 
1681	 0.402574360370636 
1682	 0.402913451194763 
1683	 0.403282970190048 
1684	 0.403632044792175 
1685	 0.403979927301407 
1686	 0.40434256196022 
1687	 0.404694855213165 
1688	 0.40505239367485 
1689	 0.405406415462494 
1690	 0.40572515130043 
1691	 0.406030535697937 
1692	 0.406313985586166 
1693	 0.406608641147614 
1694	 0.406913995742798 
1695	 0.407183080911636 
1696	 0.407486885786057 
1697	 0.407826691865921 
1698	 0.40812423825264 
1699	 0.408463686704636 
1700	 0.408766120672226 
1701	 0.408983111381531 
1702	 0.409269094467163 
1703	 0.409532397985458 
1704	 0.409802556037903 
1705	 0.410136729478836 
1706	 0.410426408052444 
1707	 0.410725474357605 
1708	 0.411041706800461 
1709	 0.411349087953568 
1710	 0.411642640829086 
1711	 0.411901116371155 
1712	 0.412181407213211 
1713	 0.412471950054169 
1714	 0.412754833698273 
1715	 0.41304475069046 
1716	 0.413299441337585 
1717	 0.413526803255081 
1718	 0.41374546289444 
1719	 0.413956463336945 
1720	 0.414186000823975 
1721	 0.414375364780426 
1722	 0.414574027061462 
1723	 0.414900749921799 
1724	 0.415222108364105 
1725	 0.415505766868591 
1726	 0.41574826836586 
1727	 0.415987014770508 
1728	 0.416202068328857 
1729	 0.416434735059738 
1730	 0.416727840900421 
1731	 0.416933178901672 
1732	 0.417040139436722 
1733	 0.417192697525024 
1734	 0.4173324406147 
1735	 0.417490243911743 
1736	 0.417683362960815 
1737	 0.417871028184891 
1738	 0.418050765991211 
1739	 0.418232202529907 
1740	 0.418391019105911 
1741	 0.41852879524231 
1742	 0.418622612953186 
1743	 0.418715596199036 
1744	 0.418927162885666 
1745	 0.419203490018845 
1746	 0.419464707374573 
1747	 0.419725149869919 
1748	 0.419963091611862 
1749	 0.42015066742897 
1750	 0.420329213142395 
1751	 0.420535296201706 
1752	 0.42069199681282 
1753	 0.420815110206604 
1754	 0.420999258756638 
1755	 0.421190053224564 
1756	 0.421367585659027 
1757	 0.421559542417526 
1758	 0.421711683273315 
1759	 0.421841949224472 
1760	 0.422010838985443 
1761	 0.422250837087631 
1762	 0.422507375478745 
1763	 0.422731995582581 
1764	 0.422935426235199 
1765	 0.423040360212326 
1766	 0.423118114471436 
1767	 0.423235356807709 
1768	 0.423308968544006 
1769	 0.423394024372101 
1770	 0.423504084348679 
1771	 0.423574715852737 
1772	 0.423696935176849 
1773	 0.423854023218155 
1774	 0.423941075801849 
1775	 0.424043267965317 
1776	 0.424126446247101 
1777	 0.424170792102814 
1778	 0.424283057451248 
1779	 0.424399375915527 
1780	 0.4245385825634 
1781	 0.424687534570694 
1782	 0.424837052822113 
1783	 0.424973636865616 
1784	 0.425103336572647 
1785	 0.425225257873535 
1786	 0.425345867872238 
1787	 0.42545348405838 
1788	 0.425543934106827 
1789	 0.42562147974968 
1790	 0.425648868083954 
1791	 0.425699830055237 
1792	 0.425777733325958 
1793	 0.42583566904068 
1794	 0.425928980112076 
1795	 0.426040500402451 
1796	 0.426178753376007 
1797	 0.42636102437973 
1798	 0.426572352647781 
1799	 0.426788538694382 
1800	 0.426933765411377 
1801	 0.427017718553543 
1802	 0.427100300788879 
1803	 0.427128732204437 
1804	 0.427179098129272 
1805	 0.427250355482101 
1806	 0.427258998155594 
1807	 0.42730513215065 
1808	 0.427319318056107 
1809	 0.427306205034256 
1810	 0.427339792251587 
1811	 0.427338868379593 
1812	 0.427344173192978 
1813	 0.427351385354996 
1814	 0.42731985449791 
1815	 0.427345812320709 
1816	 0.427402526140213 
1817	 0.427534103393555 
1818	 0.427707403898239 
1819	 0.427844703197479 
1820	 0.428006500005722 
1821	 0.428142726421356 
1822	 0.428231865167618 
1823	 0.428358942270279 
1824	 0.428415715694427 
1825	 0.428436458110809 
1826	 0.428509682416916 
1827	 0.428525865077972 
1828	 0.428516626358032 
1829	 0.428497672080994 
1830	 0.42843109369278 
1831	 0.440440624952316 
1832	 0.440463811159134 
1833	 0.440466016530991 
1834	 0.440425246953964 
1835	 0.440355718135834 
1836	 0.440287858247757 
1837	 0.440176874399185 
1838	 0.440001577138901 
1839	 0.439825236797333 
1840	 0.439633846282959 
1841	 0.439383804798126 
1842	 0.439098536968231 
1843	 0.438775599002838 
1844	 0.438542813062668 
1845	 0.438394635915756 
1846	 0.438163965940475 
1847	 0.437945485115051 
1848	 0.437736511230469 
1849	 0.437457948923111 
1850	 0.437050014734268 
1851	 0.436552256345749 
1852	 0.436145156621933 
1853	 0.435772150754929 
1854	 0.435377031564713 
1855	 0.434944570064545 
1856	 0.434587597846985 
1857	 0.434118866920471 
1858	 0.433530926704407 
1859	 0.43293359875679 
1860	 0.432452350854874 
1861	 0.431898176670074 
1862	 0.431291311979294 
1863	 0.430688410997391 
1864	 0.430008113384247 
1865	 0.429423630237579 
1866	 0.428754717111588 
1867	 0.428071260452271 
1868	 0.427311301231384 
1869	 0.426621913909912 
1870	 0.425711214542389 
1871	 0.424714028835297 
1872	 0.423817843198776 
1873	 0.422771960496902 
1874	 0.421701282262802 
1875	 0.42066216468811 
1876	 0.419627100229263 
1877	 0.418594121932983 
1878	 0.417590141296387 
1879	 0.416493594646454 
1880	 0.41534411907196 
1881	 0.414116382598877 
1882	 0.412806838750839 
1883	 0.411551684141159 
1884	 0.410218179225922 
1885	 0.40879887342453 
1886	 0.407438963651657 
1887	 0.405999600887299 
1888	 0.404437094926834 
1889	 0.402825087308884 
1890	 0.40117284655571 
1891	 0.399395108222961 
1892	 0.397486060857773 
1893	 0.395484149456024 
1894	 0.393512010574341 
1895	 0.391440063714981 
1896	 0.389271527528763 
1897	 0.387074708938599 
1898	 0.384711980819702 
1899	 0.382386207580566 
1900	 0.379944771528244 
1901	 0.3776034116745 
1902	 0.375390857458115 
1903	 0.373299360275269 
1904	 0.371267110109329 
1905	 0.369281977415085 
1906	 0.367376238107681 
1907	 0.365687161684036 
1908	 0.364177823066711 
1909	 0.362795174121857 
1910	 0.361609309911728 
1911	 0.360604733228683 
1912	 0.359712809324265 
1913	 0.359026283025742 
1914	 0.358525931835175 
1915	 0.358155220746994 
1916	 0.357865542173386 
1917	 0.357614994049072 
1918	 0.357438862323761 
1919	 0.357272535562515 
1920	 0.357212275266647 
1921	 0.357323288917542 
1922	 0.357373207807541 
1923	 0.357461601495743 
1924	 0.357508987188339 
1925	 0.357608169317245 
1926	 0.357641816139221 
1927	 0.35763281583786 
1928	 0.357651263475418 
1929	 0.357658326625824 
1930	 0.357639670372009 
1931	 0.357661038637161 
1932	 0.357795149087906 
1933	 0.357867121696472 
1934	 0.357933074235916 
1935	 0.357949614524841 
1936	 0.358012109994888 
1937	 0.357990831136703 
1938	 0.357893913984299 
1939	 0.357808977365494 
1940	 0.357727825641632 
1941	 0.357617557048798 
1942	 0.357511162757874 
1943	 0.357396721839905 
1944	 0.357281625270844 
1945	 0.357125282287598 
1946	 0.35697278380394 
1947	 0.35680878162384 
1948	 0.3567054271698 
1949	 0.356579214334488 
1950	 0.356515645980835 
1951	 0.356567084789276 
1952	 0.356660425662994 
1953	 0.35677370429039 
1954	 0.356900006532669 
1955	 0.357014894485474 
1956	 0.357116669416428 
1957	 0.357251554727554 
1958	 0.35741063952446 
1959	 0.357549965381622 
1960	 0.357698351144791 
1961	 0.357872992753983 
1962	 0.357981473207474 
1963	 0.358123570680618 
1964	 0.358250260353088 
1965	 0.358299791812897 
1966	 0.358363837003708 
1967	 0.358441382646561 
1968	 0.358559221029282 
1969	 0.35874417424202 
1970	 0.358874082565308 
1971	 0.35905933380127 
1972	 0.359127223491669 
1973	 0.359092652797699 
1974	 0.359070062637329 
1975	 0.359086811542511 
1976	 0.359044045209885 
1977	 0.359061926603317 
1978	 0.359118193387985 
1979	 0.359087586402893 
1980	 0.359109699726105 
1981	 0.359159260988235 
1982	 0.359237998723984 
1983	 0.359312623739243 
1984	 0.359382510185242 
1985	 0.359507828950882 
1986	 0.359669297933578 
1987	 0.359821379184723 
1988	 0.360021680593491 
1989	 0.360346227884293 
1990	 0.36060643196106 
1991	 0.360835760831833 
1992	 0.361112058162689 
1993	 0.361430615186691 
1994	 0.36179655790329 
1995	 0.362227112054825 
1996	 0.362656831741333 
1997	 0.36311000585556 
1998	 0.363596796989441 
1999	 0.364083468914032 
2000	 0.364658296108246 
2001	 0.365262567996979 
2002	 0.365901172161102 
2003	 0.36650288105011 
2004	 0.367189884185791 
2005	 0.368003964424133 
2006	 0.368787944316864 
2007	 0.369632035493851 
2008	 0.37057426571846 
2009	 0.371498018503189 
2010	 0.372400462627411 
2011	 0.373387157917023 
2012	 0.374429970979691 
2013	 0.375492632389069 
2014	 0.376613676548004 
2015	 0.377787917852402 
2016	 0.378939986228943 
2017	 0.380149692296982 
2018	 0.38148096203804 
2019	 0.38283097743988 
2020	 0.384104341268539 
2021	 0.385399162769318 
2022	 0.386681258678436 
2023	 0.387850701808929 
2024	 0.38909900188446 
2025	 0.390436768531799 
2026	 0.391732007265091 
2027	 0.393011540174484 
2028	 0.394325375556946 
2029	 0.395537674427032 
2030	 0.396711498498917 
2031	 0.397870898246765 
2032	 0.399034529924393 
2033	 0.400340229272842 
2034	 0.401657253503799 
2035	 0.402833819389343 
2036	 0.403910726308823 
2037	 0.405062317848206 
2038	 0.406170099973679 
2039	 0.407240509986877 
2040	 0.40837287902832 
2041	 0.409434109926224 
2042	 0.410364896059036 
2043	 0.41134175658226 
2044	 0.412350863218308 
2045	 0.413369208574295 
2046	 0.414355725049973 
2047	 0.415201604366302 
2048	 0.416036784648895 
2049	 0.416818737983704 
2050	 0.417617857456207 
2051	 0.418359965085983 
2052	 0.419105917215347 
2053	 0.419880241155624 
2054	 0.42058065533638 
2055	 0.421229988336563 
2056	 0.421905666589737 
2057	 0.422591358423233 
2058	 0.423176556825638 
2059	 0.423799932003021 
2060	 0.424411624670029 
2061	 0.4250408411026 
2062	 0.425666719675064 
2063	 0.426223784685135 
2064	 0.426813036203384 
2065	 0.427351176738739 
2066	 0.427812069654465 
2067	 0.428298741579056 
2068	 0.428789705038071 
2069	 0.429271161556244 
2070	 0.42971858382225 
2071	 0.430178910493851 
2072	 0.430643171072006 
2073	 0.431138664484024 
2074	 0.43155625462532 
2075	 0.432069420814514 
2076	 0.432550251483917 
2077	 0.432834535837173 
2078	 0.433104515075684 
2079	 0.43351873755455 
2080	 0.43390765786171 
2081	 0.434351146221161 
2082	 0.434706777334213 
2083	 0.435040861368179 
2084	 0.435330897569656 
2085	 0.435536324977875 
2086	 0.435830861330032 
2087	 0.436192154884338 
2088	 0.436462461948395 
2089	 0.436710804700851 
2090	 0.436943739652634 
2091	 0.437134891748428 
2092	 0.437325716018677 
2093	 0.437586098909378 
2094	 0.437698423862457 
2095	 0.437633961439133 
2096	 0.437681078910828 
2097	 0.4377820789814 
2098	 0.43794646859169 
2099	 0.437984764575958 
2100	 0.438073068857193 
2101	 0.438082456588745 
2102	 0.437895029783249 
2103	 0.437822014093399 
2104	 0.437899738550186 
2105	 0.437818259000778 
2106	 0.437598675489426 
2107	 0.437479227781296 
2108	 0.437428504228592 
2109	 0.43721079826355 
2110	 0.437031507492065 
2111	 0.436961859464645 
2112	 0.436877101659775 
2113	 0.436802923679352 
2114	 0.436797499656677 
2115	 0.436946719884872 
2116	 0.436993092298508 
2117	 0.437020361423492 
2118	 0.437045037746429 
2119	 0.437015354633331 
2120	 0.437066584825516 
2121	 0.437136173248291 
2122	 0.437221467494965 
2123	 0.437435120344162 
2124	 0.437550723552704 
2125	 0.437642782926559 
2126	 0.437677979469299 
2127	 0.437630861997604 
2128	 0.437521427869797 
2129	 0.43751984834671 
2130	 0.437473654747009 
2131	 0.437373608350754 
2132	 0.437370479106903 
2133	 0.437325745820999 
2134	 0.437306672334671 
2135	 0.437090486288071 
2136	 0.436869472265244 
2137	 0.436480671167374 
2138	 0.435824453830719 
2139	 0.435216009616852 
2140	 0.434682160615921 
2141	 0.43389967083931 
2142	 0.432949900627136 
2143	 0.431935489177704 
2144	 0.430809557437897 
2145	 0.429496675729752 
2146	 0.42808735370636 
2147	 0.426681756973267 
2148	 0.425228625535965 
2149	 0.423681497573853 
2150	 0.422116041183472 
2151	 0.42063695192337 
2152	 0.419171750545502 
2153	 0.41765296459198 
2154	 0.416218400001526 
2155	 0.41487517952919 
2156	 0.41354700922966 
2157	 0.412178307771683 
2158	 0.410962462425232 
2159	 0.409792900085449 
2160	 0.408769756555557 
2161	 0.40793576836586 
2162	 0.407124221324921 
2163	 0.406453758478165 
2164	 0.405730992555618 
2165	 0.405113935470581 
2166	 0.404544949531555 
2167	 0.404012799263 
2168	 0.403707325458527 
2169	 0.40343701839447 
2170	 0.403013497591019 
2171	 0.402611523866653 
2172	 0.402229577302933 
2173	 0.401789039373398 
2174	 0.401252776384354 
2175	 0.400843977928162 
2176	 0.400508105754852 
2177	 0.400063723325729 
2178	 0.399759590625763 
2179	 0.399138659238815 
2180	 0.398260921239853 
2181	 0.397440016269684 
2182	 0.396535664796829 
2183	 0.395534366369247 
2184	 0.394526600837708 
2185	 0.393338739871979 
2186	 0.391967236995697 
2187	 0.390496581792831 
2188	 0.388998180627823 
2189	 0.387563019990921 
2190	 0.386102855205536 
2191	 0.384642064571381 
2192	 0.383128643035889 
2193	 0.381611734628677 
2194	 0.380113989114761 
2195	 0.378562152385712 
2196	 0.377002835273743 
2197	 0.375547260046005 
2198	 0.373818188905716 
2199	 0.372055649757385 
2200	 0.36999249458313 
2201	 0.367541402578354 
2202	 0.365149259567261 
2203	 0.36250564455986 
2204	 0.360041171312332 
2205	 0.357327193021774 
2206	 0.355276346206665 
2207	 0.353142559528351 
2208	 0.352010607719421 
2209	 0.351698249578476 
2210	 0.351822197437286 
2211	 0.352600246667862 
2212	 0.35398268699646 
2213	 0.355788320302963 
2214	 0.357790350914001 
2215	 0.359968811273575 
2216	 0.362074643373489 
2217	 0.363892614841461 
2218	 0.365207225084305 
2219	 0.36607500910759 
2220	 0.366533607244492 
2221	 0.366536319255829 
2222	 0.366101324558258 
2223	 0.365447580814362 
2224	 0.364521384239197 
2225	 0.363234430551529 
2226	 0.361471205949783 
2227	 0.359737068414688 
2228	 0.357854068279266 
2229	 0.35561403632164 
2230	 0.353232890367508 
2231	 0.350502818822861 
2232	 0.347275137901306 
2233	 0.344000577926636 
2234	 0.340524047613144 
2235	 0.336918383836746 
2236	 0.333186656236649 
2237	 0.329171389341354 
2238	 0.324818849563599 
2239	 0.32051208615303 
2240	 0.316185384988785 
2241	 0.311883836984634 
2242	 0.307831525802612 
2243	 0.30380117893219 
2244	 0.299799591302872 
2245	 0.2962446808815 
2246	 0.293094635009766 
2247	 0.290239900350571 
2248	 0.287648737430573 
2249	 0.285375028848648 
2250	 0.283654898405075 
2251	 0.282495021820068 
2252	 0.281664878129959 
2253	 0.281481117010117 
2254	 0.281421780586243 
2255	 0.281574130058289 
2256	 0.282156080007553 
2257	 0.283227175474167 
2258	 0.28442308306694 
2259	 0.286127060651779 
2260	 0.287570804357529 
2261	 0.289118647575378 
2262	 0.290623188018799 
2263	 0.292068719863892 
2264	 0.293477535247803 
2265	 0.295027047395706 
2266	 0.29630571603775 
2267	 0.297443866729736 
2268	 0.298444598913193 
2269	 0.299238622188568 
2270	 0.299959689378738 
2271	 0.300523340702057 
2272	 0.301071643829346 
2273	 0.301591694355011 
2274	 0.302087128162384 
2275	 0.302570998668671 
2276	 0.302726149559021 
2277	 0.302556425333023 
2278	 0.30239474773407 
2279	 0.302015066146851 
2280	 0.301366090774536 
2281	 0.300766468048096 
2282	 0.300049513578415 
2283	 0.299029648303986 
2284	 0.297954946756363 
2285	 0.296834319829941 
2286	 0.295482218265533 
2287	 0.294030338525772 
2288	 0.292686820030212 
2289	 0.291318327188492 
2290	 0.289914518594742 
2291	 0.288651138544083 
2292	 0.287586092948914 
2293	 0.286399722099304 
2294	 0.285223752260208 
2295	 0.284030258655548 
2296	 0.28270423412323 
2297	 0.281695902347565 
2298	 0.280867755413055 
2299	 0.279921352863312 
2300	 0.279163599014282 
2301	 0.278296679258347 
2302	 0.277210563421249 
2303	 0.276348501443863 
2304	 0.275660067796707 
2305	 0.274873107671738 
2306	 0.274188667535782 
2307	 0.273296266794205 
2308	 0.272253811359406 
2309	 0.271258890628815 
2310	 0.270115941762924 
2311	 0.269082397222519 
2312	 0.268128365278244 
2313	 0.26720055937767 
2314	 0.266329973936081 
2315	 0.265443831682205 
2316	 0.264702588319778 
2317	 0.263665944337845 
2318	 0.262532532215118 
2319	 0.261523544788361 
2320	 0.260644167661667 
2321	 0.25996807217598 
2322	 0.259267389774323 
2323	 0.258373856544495 
2324	 0.257500201463699 
2325	 0.256427794694901 
2326	 0.25532791018486 
2327	 0.254694551229477 
2328	 0.253951698541641 
2329	 0.253171145915985 
2330	 0.252655953168869 
2331	 0.251895248889923 
2332	 0.251049637794495 
2333	 0.250457793474197 
2334	 0.249952048063278 
2335	 0.249466150999069 
2336	 0.249061912298203 
2337	 0.248543471097946 
2338	 0.247914254665375 
2339	 0.247399196028709 
2340	 0.247076719999313 
2341	 0.246930181980133 
2342	 0.24691978096962 
2343	 0.247113108634949 
2344	 0.247240141034126 
2345	 0.247123911976814 
2346	 0.247261494398117 
2347	 0.247674450278282 
2348	 0.248133346438408 
2349	 0.248867020010948 
2350	 0.249450579285622 
2351	 0.249946966767311 
2352	 0.250435143709183 
2353	 0.250895470380783 
2354	 0.251566797494888 
2355	 0.252224117517471 
2356	 0.25312927365303 
2357	 0.254362821578979 
2358	 0.255342274904251 
2359	 0.256261229515076 
2360	 0.257419496774673 
2361	 0.258664429187775 
2362	 0.259836763143539 
2363	 0.26115220785141 
2364	 0.262400597333908 
2365	 0.263549447059631 
2366	 0.264700591564178 
2367	 0.26584467291832 
2368	 0.267183840274811 
2369	 0.268581837415695 
2370	 0.269777536392212 
2371	 0.271196484565735 
2372	 0.272303968667984 
2373	 0.273073017597198 
2374	 0.273884028196335 
2375	 0.274613529443741 
2376	 0.275313973426819 
2377	 0.275799185037613 
2378	 0.276466310024261 
2379	 0.277393132448196 
2380	 0.277936309576035 
2381	 0.278377532958984 
2382	 0.278732150793076 
2383	 0.278676241636276 
2384	 0.278956323862076 
2385	 0.279400944709778 
2386	 0.279730796813965 
2387	 0.280204385519028 
2388	 0.28046840429306 
2389	 0.280457258224487 
2390	 0.280675023794174 
2391	 0.280951708555222 
2392	 0.281216323375702 
2393	 0.281559735536575 
2394	 0.281870424747467 
2395	 0.282128483057022 
2396	 0.282395362854004 
2397	 0.282742470502853 
2398	 0.283090323209763 
2399	 0.283375918865204 
2400	 0.283723771572113 
2401	 0.284185320138931 
2402	 0.284391611814499 
2403	 0.284590393304825 
2404	 0.284680515527725 
2405	 0.284353375434875 
2406	 0.284509837627411 
2407	 0.284862041473389 
2408	 0.285113096237183 
2409	 0.285661637783051 
2410	 0.285931676626205 
2411	 0.286057442426682 
2412	 0.286106377840042 
2413	 0.286064803600311 
2414	 0.285907059907913 
2415	 0.285424470901489 
2416	 0.285343945026398 
2417	 0.28545954823494 
2418	 0.285400182008743 
2419	 0.285581231117249 
2420	 0.285388857126236 
2421	 0.284918278455734 
2422	 0.284388810396194 
2423	 0.283573389053345 
2424	 0.283045262098312 
2425	 0.282426744699478 
2426	 0.281950354576111 
2427	 0.281879931688309 
2428	 0.281434923410416 
2429	 0.28082463145256 
2430	 0.280222803354263 
2431	 0.279422104358673 
2432	 0.278771787881851 
2433	 0.278276860713959 
2434	 0.277579039335251 
2435	 0.276766896247864 
2436	 0.276095449924469 
2437	 0.275278717279434 
2438	 0.274677157402039 
2439	 0.274481773376465 
2440	 0.273739457130432 
2441	 0.272680908441544 
2442	 0.271963328123093 
2443	 0.271053373813629 
2444	 0.270473301410675 
2445	 0.270450800657272 
2446	 0.269830733537674 
2447	 0.268988996744156 
2448	 0.268136292695999 
2449	 0.267058849334717 
2450	 0.266090840101242 
2451	 0.265014290809631 
2452	 0.264471620321274 
2453	 0.264145195484161 
2454	 0.263983577489853 
2455	 0.263624578714371 
2456	 0.26246976852417 
2457	 0.261465787887573 
2458	 0.2601338326931 
2459	 0.259055107831955 
2460	 0.258764117956162 
2461	 0.258057296276093 
2462	 0.257343173027039 
2463	 0.25672647356987 
2464	 0.255768060684204 
2465	 0.254917502403259 
2466	 0.254340618848801 
2467	 0.253691583871841 
2468	 0.252512812614441 
2469	 0.252016812562943 
2470	 0.252677619457245 
2471	 0.252239197492599 
2472	 0.251541972160339 
2473	 0.250813692808151 
2474	 0.248775139451027 
2475	 0.247646644711494 
2476	 0.247371390461922 
2477	 0.246853992342949 
2478	 0.246652394533157 
2479	 0.246164321899414 
2480	 0.245379626750946 
2481	 0.244816735386848 
2482	 0.244048029184341 
2483	 0.243716821074486 
2484	 0.244061380624771 
2485	 0.243794947862625 
2486	 0.243461698293686 
2487	 0.243041843175888 
2488	 0.242263987660408 
2489	 0.241405427455902 
2490	 0.24035456776619 
2491	 0.239684849977493 
2492	 0.238857746124268 
2493	 0.238366320729256 
2494	 0.238371893763542 
2495	 0.238424479961395 
2496	 0.238570272922516 
2497	 0.238692551851273 
2498	 0.239225268363953 
2499	 0.239409044384956 
2500	 0.239486128091812 
