
Text conversion of header file \A_MEDIDAS\PROJETOS\BRASIL\BLOCO GAVIAO\JACOBINA\CANIF27\sco\CANIF27_008.46_00000.asd.ref
 -------------------------------------------------------------
Intemperizada                                                                                                                                               
The instrument number was  16586/1
New ASD spectrum file: Program version = 6.00 file version = 1.00
Spectrum saved: 10/16/2018 at 09:57:55
VNIR integration time : 34
VNIR channel 1 wavelength = 350 wavelength step = 1
There were 50 samples per data value
xmin = 350 xmax= 2500
ymin= 0 ymax= 1.25
The instrument digitizes spectral values to 16 bits
SWIR1 gain was 214 offset was 2097
SWIR2 gain was 513 offset was 2267
Join between VNIR and SWIR1 was 1000 nm
Join between SWIR1 and SWIR2 was 1830 nm
Absolute Reflectance is Enabled
The Absolute Reflectance File is abs165861.ref
VNIR dark signal subtracted
50 dark measurements taken Tue Oct 16 09:52:54 2018
DCC value was 0
Data is compared to a white reference:
60 white reference measurements taken Tue Oct 16 09:53:02 2018
There was no foreoptic attached
Spectrum file is reflectance data
GPS-Latitude is S0
GPS-Longitude is E0
GPS-Altitude is 0
GPS-UTC is Wed Dec 31 17:00:00 1969

Smart Detector
Serial#  0
Signal (A)  0.000E00
Dark (A)  0.000E00
Ref (A)  0.000E00
Status  0 - Uninitialized
Gain  E-4
Averaging  0
Temp (C)  0.0
Humid (%)  0.0

Reflectance Absolute
Wavelength	CANIF27_8.46_00000.asd.ref
350	 0.149377927184105 
351	 0.148587390780449 
352	 0.150476470589638 
353	 0.148542866110802 
354	 0.140368640422821 
355	 0.132992476224899 
356	 0.146157115697861 
357	 0.158911108970642 
358	 0.1489247828722 
359	 0.143607705831528 
360	 0.145544469356537 
361	 0.14994965493679 
362	 0.148850008845329 
363	 0.142464861273766 
364	 0.139924108982086 
365	 0.14438459277153 
366	 0.149890914559364 
367	 0.149149477481842 
368	 0.146410271525383 
369	 0.146544590592384 
370	 0.147620365023613 
371	 0.149698317050934 
372	 0.151503339409828 
373	 0.151246443390846 
374	 0.14710009098053 
375	 0.146250918507576 
376	 0.14993642270565 
377	 0.152848988771439 
378	 0.154273897409439 
379	 0.153867468237877 
380	 0.152361050248146 
381	 0.152206942439079 
382	 0.153625249862671 
383	 0.155052229762077 
384	 0.155143916606903 
385	 0.157860800623894 
386	 0.158547654747963 
387	 0.157832533121109 
388	 0.16088293492794 
389	 0.162063717842102 
390	 0.16222095489502 
391	 0.162734389305115 
392	 0.163909271359444 
393	 0.164275333285332 
394	 0.164196729660034 
395	 0.164544999599457 
396	 0.165327951312065 
397	 0.166663125157356 
398	 0.168068304657936 
399	 0.168717056512833 
400	 0.169234961271286 
401	 0.169777408242226 
402	 0.170297712087631 
403	 0.170523688197136 
404	 0.170404613018036 
405	 0.171086803078651 
406	 0.173124760389328 
407	 0.173453971743584 
408	 0.173985555768013 
409	 0.175266295671463 
410	 0.176693812012672 
411	 0.177201375365257 
412	 0.176773503422737 
413	 0.176476091146469 
414	 0.178831145167351 
415	 0.180330812931061 
416	 0.180628150701523 
417	 0.180623427033424 
418	 0.182218581438065 
419	 0.183112278580666 
420	 0.183552950620651 
421	 0.185185968875885 
422	 0.186205849051476 
423	 0.187307298183441 
424	 0.188670456409454 
425	 0.189260214567184 
426	 0.190612703561783 
427	 0.19182088971138 
428	 0.192093029618263 
429	 0.193310394883156 
430	 0.194635942578316 
431	 0.195893496274948 
432	 0.197292804718018 
433	 0.198221698403358 
434	 0.199411973357201 
435	 0.201001524925232 
436	 0.202034950256348 
437	 0.202983185648918 
438	 0.204118013381958 
439	 0.205524116754532 
440	 0.206818655133247 
441	 0.208198919892311 
442	 0.209328591823578 
443	 0.209699779748917 
444	 0.210813909769058 
445	 0.212183818221092 
446	 0.213292330503464 
447	 0.213989660143852 
448	 0.214608266949654 
449	 0.215248316526413 
450	 0.215901076793671 
451	 0.216401994228363 
452	 0.217165291309357 
453	 0.218037858605385 
454	 0.218507379293442 
455	 0.219241410493851 
456	 0.220015913248062 
457	 0.220637395977974 
458	 0.221183136105537 
459	 0.222004488110542 
460	 0.222792759537697 
461	 0.223198413848877 
462	 0.223817124962807 
463	 0.224488407373428 
464	 0.225100755691528 
465	 0.225628882646561 
466	 0.22634220123291 
467	 0.226965829730034 
468	 0.227398127317429 
469	 0.228163093328476 
470	 0.228914350271225 
471	 0.229587197303772 
472	 0.230214193463326 
473	 0.230691969394684 
474	 0.231324478983879 
475	 0.232143521308899 
476	 0.232867941260338 
477	 0.233642488718033 
478	 0.234418824315071 
479	 0.23513925075531 
480	 0.235791027545929 
481	 0.236672729253769 
482	 0.237649127840996 
483	 0.238424316048622 
484	 0.239304006099701 
485	 0.24028867483139 
486	 0.24125911295414 
487	 0.241980642080307 
488	 0.242931827902794 
489	 0.243834465742111 
490	 0.244437843561172 
491	 0.245280683040619 
492	 0.246056616306305 
493	 0.246694788336754 
494	 0.247304022312164 
495	 0.248119875788689 
496	 0.248985975980759 
497	 0.249803557991982 
498	 0.250658869743347 
499	 0.251571625471115 
500	 0.252478361129761 
501	 0.253353357315063 
502	 0.254478305578232 
503	 0.255429893732071 
504	 0.25616455078125 
505	 0.256961315870285 
506	 0.25782522559166 
507	 0.25865837931633 
508	 0.259416848421097 
509	 0.260210931301117 
510	 0.261011451482773 
511	 0.261808723211288 
512	 0.262578934431076 
513	 0.263178884983063 
514	 0.263969033956528 
515	 0.264904111623764 
516	 0.265519052743912 
517	 0.266146510839462 
518	 0.26676020026207 
519	 0.267330795526505 
520	 0.268015921115875 
521	 0.268646210432053 
522	 0.269217282533646 
523	 0.269793152809143 
524	 0.270305991172791 
525	 0.270810633897781 
526	 0.27130913734436 
527	 0.271719008684158 
528	 0.272214412689209 
529	 0.272772520780563 
530	 0.273312002420425 
531	 0.273735165596008 
532	 0.274212837219238 
533	 0.274713486433029 
534	 0.275100916624069 
535	 0.275614798069 
536	 0.276091009378433 
537	 0.276465862989426 
538	 0.276934832334518 
539	 0.277376472949982 
540	 0.277808874845505 
541	 0.278284460306168 
542	 0.278818219900131 
543	 0.279360890388489 
544	 0.27987214922905 
545	 0.280325770378113 
546	 0.280716329813004 
547	 0.2811059653759 
548	 0.281524419784546 
549	 0.281901746988297 
550	 0.282323092222214 
551	 0.28275266289711 
552	 0.28311824798584 
553	 0.283433377742767 
554	 0.283740282058716 
555	 0.284028470516205 
556	 0.284233272075653 
557	 0.284549623727798 
558	 0.284950464963913 
559	 0.285374760627747 
560	 0.285838931798935 
561	 0.286192089319229 
562	 0.286396056413651 
563	 0.28651088476181 
564	 0.286817133426666 
565	 0.287090212106705 
566	 0.287239670753479 
567	 0.287435263395309 
568	 0.287576973438263 
569	 0.287628084421158 
570	 0.28756657242775 
571	 0.287336081266403 
572	 0.287175476551056 
573	 0.287177830934525 
574	 0.287318259477615 
575	 0.287597447633743 
576	 0.287822306156158 
577	 0.287928193807602 
578	 0.288130730390549 
579	 0.288334459066391 
580	 0.288431376218796 
581	 0.288343548774719 
582	 0.288133829832077 
583	 0.287982702255249 
584	 0.287900269031525 
585	 0.287745356559753 
586	 0.28753650188446 
587	 0.287378758192062 
588	 0.287390798330307 
589	 0.287721246480942 
590	 0.288007706403732 
591	 0.288132935762405 
592	 0.288100570440292 
593	 0.287918657064438 
594	 0.287763267755508 
595	 0.287704825401306 
596	 0.287681728601456 
597	 0.287461161613464 
598	 0.287112504243851 
599	 0.286738514900208 
600	 0.286320418119431 
601	 0.28590801358223 
602	 0.285553216934204 
603	 0.285275101661682 
604	 0.284873396158218 
605	 0.28462740778923 
606	 0.28461942076683 
607	 0.284623205661774 
608	 0.284617394208908 
609	 0.28450083732605 
610	 0.284253746271133 
611	 0.284138679504395 
612	 0.284028112888336 
613	 0.283810049295425 
614	 0.283418148756027 
615	 0.283052027225494 
616	 0.282828241586685 
617	 0.282726734876633 
618	 0.282544612884521 
619	 0.28228834271431 
620	 0.281970977783203 
621	 0.281648337841034 
622	 0.28148877620697 
623	 0.281337440013886 
624	 0.281125009059906 
625	 0.280857414007187 
626	 0.280572116374969 
627	 0.280341506004334 
628	 0.280173778533936 
629	 0.27996763586998 
630	 0.279701352119446 
631	 0.279431879520416 
632	 0.279217511415482 
633	 0.27900430560112 
634	 0.278757244348526 
635	 0.278484910726547 
636	 0.278230994939804 
637	 0.278030842542648 
638	 0.277841776609421 
639	 0.277619510889053 
640	 0.277339100837708 
641	 0.277016758918762 
642	 0.276763260364532 
643	 0.276632845401764 
644	 0.276284039020538 
645	 0.27596715092659 
646	 0.275740474462509 
647	 0.275489389896393 
648	 0.275212854146957 
649	 0.274939686059952 
650	 0.274702906608582 
651	 0.274540305137634 
652	 0.274264425039291 
653	 0.273972779512405 
654	 0.273800134658813 
655	 0.273576229810715 
656	 0.273322731256485 
657	 0.273059219121933 
658	 0.272801101207733 
659	 0.272589832544327 
660	 0.27239802479744 
661	 0.272194057703018 
662	 0.271961778402328 
663	 0.271694332361221 
664	 0.271426022052765 
665	 0.271207273006439 
666	 0.271107375621796 
667	 0.270882159471512 
668	 0.270561009645462 
669	 0.270369738340378 
670	 0.270190358161926 
671	 0.269943386316299 
672	 0.269649535417557 
673	 0.269492715597153 
674	 0.269260615110397 
675	 0.269011974334717 
676	 0.268842995166779 
677	 0.268671542406082 
678	 0.268471151590347 
679	 0.268257200717926 
680	 0.268066823482513 
681	 0.267854273319244 
682	 0.267661094665527 
683	 0.26748850941658 
684	 0.267264097929001 
685	 0.267080307006836 
686	 0.266939997673035 
687	 0.266813963651657 
688	 0.266652882099152 
689	 0.266504019498825 
690	 0.266361564397812 
691	 0.266202419996262 
692	 0.266103446483612 
693	 0.266022205352783 
694	 0.265916466712952 
695	 0.265761882066727 
696	 0.265619814395905 
697	 0.265539586544037 
698	 0.265513867139816 
699	 0.265408337116241 
700	 0.265272319316864 
701	 0.265165954828262 
702	 0.265130251646042 
703	 0.26506769657135 
704	 0.265021562576294 
705	 0.26499080657959 
706	 0.264933109283447 
707	 0.264910072088242 
708	 0.264884531497955 
709	 0.26484078168869 
710	 0.264828354120255 
711	 0.264902710914612 
712	 0.264945447444916 
713	 0.264867603778839 
714	 0.264908909797668 
715	 0.264916181564331 
716	 0.264893710613251 
717	 0.264942854642868 
718	 0.265067905187607 
719	 0.265179663896561 
720	 0.265229791402817 
721	 0.26523756980896 
722	 0.265313684940338 
723	 0.265473127365112 
724	 0.265649855136871 
725	 0.265621930360794 
726	 0.265723377466202 
727	 0.265917092561722 
728	 0.266043066978455 
729	 0.266124725341797 
730	 0.266256630420685 
731	 0.266412883996964 
732	 0.266485929489136 
733	 0.266590356826782 
734	 0.266772150993347 
735	 0.267011433839798 
736	 0.267208606004715 
737	 0.267478168010712 
738	 0.267658650875092 
739	 0.267666757106781 
740	 0.267827093601227 
741	 0.26802322268486 
742	 0.268243998289108 
743	 0.26850301027298 
744	 0.268717229366302 
745	 0.268898516893387 
746	 0.269073277711868 
747	 0.269272446632385 
748	 0.269501000642776 
749	 0.269648253917694 
750	 0.269769132137299 
751	 0.270185649394989 
752	 0.270423263311386 
753	 0.270616203546524 
754	 0.270924687385559 
755	 0.271120399236679 
756	 0.271379053592682 
757	 0.271686255931854 
758	 0.271949291229248 
759	 0.272112816572189 
760	 0.272337079048157 
761	 0.272634863853455 
762	 0.272902280092239 
763	 0.273166328668594 
764	 0.273371160030365 
765	 0.273549646139145 
766	 0.273849785327911 
767	 0.274064421653748 
768	 0.274299025535584 
769	 0.274614095687866 
770	 0.27480685710907 
771	 0.275094121694565 
772	 0.275368094444275 
773	 0.275493711233139 
774	 0.275654017925262 
775	 0.275887370109558 
776	 0.276129275560379 
777	 0.276287347078323 
778	 0.276491850614548 
779	 0.276704996824265 
780	 0.276881784200668 
781	 0.276991069316864 
782	 0.277086436748505 
783	 0.277188628911972 
784	 0.277324259281158 
785	 0.277533739805222 
786	 0.277651399374008 
787	 0.277683407068253 
788	 0.277706801891327 
789	 0.277864187955856 
790	 0.277949810028076 
791	 0.277948498725891 
792	 0.277937889099121 
793	 0.278063148260117 
794	 0.2782202064991 
795	 0.278290897607803 
796	 0.278203308582306 
797	 0.278145015239716 
798	 0.278080850839615 
799	 0.278012275695801 
800	 0.277975469827652 
801	 0.277938783168793 
802	 0.277848184108734 
803	 0.277740329504013 
804	 0.27774441242218 
805	 0.27756267786026 
806	 0.277407914400101 
807	 0.277380704879761 
808	 0.277214020490646 
809	 0.277002453804016 
810	 0.276820659637451 
811	 0.276702105998993 
812	 0.276591420173645 
813	 0.276380032300949 
814	 0.276154398918152 
815	 0.276016891002655 
816	 0.275851190090179 
817	 0.275597810745239 
818	 0.275325030088425 
819	 0.275126039981842 
820	 0.274864792823792 
821	 0.274563878774643 
822	 0.274292588233948 
823	 0.274109989404678 
824	 0.273819714784622 
825	 0.273510932922363 
826	 0.273240000009537 
827	 0.272992938756943 
828	 0.272649347782135 
829	 0.272340089082718 
830	 0.272081077098846 
831	 0.27171716094017 
832	 0.271444350481033 
833	 0.271186411380768 
834	 0.270866930484772 
835	 0.270496755838394 
836	 0.270134180784225 
837	 0.26977527141571 
838	 0.269436895847321 
839	 0.269209772348404 
840	 0.268972843885422 
841	 0.268693834543228 
842	 0.268376469612122 
843	 0.268045872449875 
844	 0.267668843269348 
845	 0.267278641462326 
846	 0.266936719417572 
847	 0.26672688126564 
848	 0.266447931528091 
849	 0.266112059354782 
850	 0.265796482563019 
851	 0.265446245670319 
852	 0.265005558729172 
853	 0.264583259820938 
854	 0.264321804046631 
855	 0.264126569032669 
856	 0.263945788145065 
857	 0.263686239719391 
858	 0.263286739587784 
859	 0.262943685054779 
860	 0.262616574764252 
861	 0.262285262346268 
862	 0.26196700334549 
863	 0.261773735284805 
864	 0.261479467153549 
865	 0.26110976934433 
866	 0.260863393545151 
867	 0.260608673095703 
868	 0.260377734899521 
869	 0.260175108909607 
870	 0.259966641664505 
871	 0.259689599275589 
872	 0.259423732757568 
873	 0.259201496839523 
874	 0.258996516466141 
875	 0.258812844753265 
876	 0.25850322842598 
877	 0.258140057325363 
878	 0.257972955703735 
879	 0.257832944393158 
880	 0.257630676031113 
881	 0.257394820451736 
882	 0.257242381572723 
883	 0.257100731134415 
884	 0.256893485784531 
885	 0.256651848554611 
886	 0.256489396095276 
887	 0.256260186433792 
888	 0.256103515625 
889	 0.256031423807144 
890	 0.255907863378525 
891	 0.255759537220001 
892	 0.25557467341423 
893	 0.255401372909546 
894	 0.255328148603439 
895	 0.255301594734192 
896	 0.255219578742981 
897	 0.255046010017395 
898	 0.254826575517654 
899	 0.254662275314331 
900	 0.25456503033638 
901	 0.254498034715652 
902	 0.254408091306686 
903	 0.254353940486908 
904	 0.254323452711105 
905	 0.254290699958801 
906	 0.254225641489029 
907	 0.254100412130356 
908	 0.253985852003098 
909	 0.253944456577301 
910	 0.253984063863754 
911	 0.253908634185791 
912	 0.253917574882507 
913	 0.253923863172531 
914	 0.253764361143112 
915	 0.253861397504807 
916	 0.253967076539993 
917	 0.253983646631241 
918	 0.253933787345886 
919	 0.253886669874191 
920	 0.253847450017929 
921	 0.253857672214508 
922	 0.253935366868973 
923	 0.253975987434387 
924	 0.254040271043777 
925	 0.254090279340744 
926	 0.254085034132004 
927	 0.254062116146088 
928	 0.254230618476868 
929	 0.254365175962448 
930	 0.254287302494049 
931	 0.25421079993248 
932	 0.254240721464157 
933	 0.254320979118347 
934	 0.254408776760101 
935	 0.254559487104416 
936	 0.254751592874527 
937	 0.25482776761055 
938	 0.25476548075676 
939	 0.254738092422485 
940	 0.254848450422287 
941	 0.254963874816895 
942	 0.255048513412476 
943	 0.255169302225113 
944	 0.25519523024559 
945	 0.255170285701752 
946	 0.255222171545029 
947	 0.255436688661575 
948	 0.255529552698135 
949	 0.255541622638702 
950	 0.255617707967758 
951	 0.255825906991959 
952	 0.255818724632263 
953	 0.256040692329407 
954	 0.256295889616013 
955	 0.256346672773361 
956	 0.256387770175934 
957	 0.256590902805328 
958	 0.256840735673904 
959	 0.257038414478302 
960	 0.257228523492813 
961	 0.257312834262848 
962	 0.25739774107933 
963	 0.257560312747955 
964	 0.25778141617775 
965	 0.257871866226196 
966	 0.258032917976379 
967	 0.258255660533905 
968	 0.258407562971115 
969	 0.258554995059967 
970	 0.258692979812622 
971	 0.258851140737534 
972	 0.259045243263245 
973	 0.259225815534592 
974	 0.259362399578094 
975	 0.259500533342361 
976	 0.259669244289398 
977	 0.259841322898865 
978	 0.260079145431519 
979	 0.26034140586853 
980	 0.260603815317154 
981	 0.260862410068512 
982	 0.261045604944229 
983	 0.2610964179039 
984	 0.261173248291016 
985	 0.261435270309448 
986	 0.261661320924759 
987	 0.261861622333527 
988	 0.262033432722092 
989	 0.262206852436066 
990	 0.262455105781555 
991	 0.262739092111588 
992	 0.262986660003662 
993	 0.263242989778519 
994	 0.263615012168884 
995	 0.263827413320541 
996	 0.263997375965118 
997	 0.264255106449127 
998	 0.2646484375 
999	 0.265036225318909 
1000	 0.265306383371353 
1001	 0.252660155296326 
1002	 0.25297537446022 
1003	 0.253359645605087 
1004	 0.253803431987762 
1005	 0.254284560680389 
1006	 0.25466987490654 
1007	 0.254942297935486 
1008	 0.255170196294785 
1009	 0.25542151927948 
1010	 0.25559788942337 
1011	 0.255825966596603 
1012	 0.256107181310654 
1013	 0.256369829177856 
1014	 0.256571978330612 
1015	 0.256860464811325 
1016	 0.2572340965271 
1017	 0.25754252076149 
1018	 0.257934302091599 
1019	 0.258203268051147 
1020	 0.258327931165695 
1021	 0.25857999920845 
1022	 0.258788168430328 
1023	 0.259094268083572 
1024	 0.259378433227539 
1025	 0.259733885526657 
1026	 0.259986907243729 
1027	 0.260157197713852 
1028	 0.260381996631622 
1029	 0.2605841755867 
1030	 0.260846853256226 
1031	 0.261131137609482 
1032	 0.261480122804642 
1033	 0.261813223361969 
1034	 0.262120604515076 
1035	 0.262330889701843 
1036	 0.262437522411346 
1037	 0.26261380314827 
1038	 0.262802451848984 
1039	 0.262951493263245 
1040	 0.263142764568329 
1041	 0.263304114341736 
1042	 0.263374477624893 
1043	 0.263507455587387 
1044	 0.263669162988663 
1045	 0.263879179954529 
1046	 0.264068961143494 
1047	 0.264238744974136 
1048	 0.264456003904343 
1049	 0.264659434556961 
1050	 0.264829307794571 
1051	 0.264928460121155 
1052	 0.26496621966362 
1053	 0.265064775943756 
1054	 0.26518052816391 
1055	 0.265317231416702 
1056	 0.265442430973053 
1057	 0.265627831220627 
1058	 0.26571124792099 
1059	 0.265699535608292 
1060	 0.265747457742691 
1061	 0.265829831361771 
1062	 0.265985488891602 
1063	 0.2661452293396 
1064	 0.266309261322021 
1065	 0.26641383767128 
1066	 0.26643505692482 
1067	 0.266548007726669 
1068	 0.266622602939606 
1069	 0.266704082489014 
1070	 0.266790449619293 
1071	 0.266906768083572 
1072	 0.267017245292664 
1073	 0.267154842615128 
1074	 0.267326295375824 
1075	 0.267490774393082 
1076	 0.267556190490723 
1077	 0.267726689577103 
1078	 0.267943680286407 
1079	 0.268066793680191 
1080	 0.268303722143173 
1081	 0.26844248175621 
1082	 0.268472582101822 
1083	 0.268542021512985 
1084	 0.268576502799988 
1085	 0.268690675497055 
1086	 0.268810957670212 
1087	 0.268969357013702 
1088	 0.269121050834656 
1089	 0.269364356994629 
1090	 0.26957094669342 
1091	 0.269728690385818 
1092	 0.269977927207947 
1093	 0.2701515853405 
1094	 0.270260572433472 
1095	 0.270507514476776 
1096	 0.270718544721603 
1097	 0.2708880007267 
1098	 0.271060347557068 
1099	 0.271216690540314 
1100	 0.27140748500824 
1101	 0.27156338095665 
1102	 0.27170741558075 
1103	 0.271884500980377 
1104	 0.272038787603378 
1105	 0.272103369235992 
1106	 0.272206902503967 
1107	 0.272333234548569 
1108	 0.272471874952316 
1109	 0.272681355476379 
1110	 0.272913843393326 
1111	 0.273071974515915 
1112	 0.273247569799423 
1113	 0.273485481739044 
1114	 0.273661434650421 
1115	 0.273898392915726 
1116	 0.274174928665161 
1117	 0.274404555559158 
1118	 0.274582654237747 
1119	 0.274798482656479 
1120	 0.274993062019348 
1121	 0.275148898363113 
1122	 0.275321364402771 
1123	 0.275483787059784 
1124	 0.27568507194519 
1125	 0.275937557220459 
1126	 0.276153951883316 
1127	 0.276377409696579 
1128	 0.27658149600029 
1129	 0.276743650436401 
1130	 0.276920676231384 
1131	 0.277088344097137 
1132	 0.277274161577225 
1133	 0.277446120977402 
1134	 0.277612775564194 
1135	 0.277743637561798 
1136	 0.277945578098297 
1137	 0.278195559978485 
1138	 0.278430104255676 
1139	 0.278709679841995 
1140	 0.278938591480255 
1141	 0.279105991125107 
1142	 0.279347240924835 
1143	 0.279564052820206 
1144	 0.27975931763649 
1145	 0.280012637376785 
1146	 0.280228912830353 
1147	 0.280443131923676 
1148	 0.280703514814377 
1149	 0.280933409929276 
1150	 0.2811179459095 
1151	 0.281364291906357 
1152	 0.281645148992538 
1153	 0.281872004270554 
1154	 0.282138854265213 
1155	 0.282449960708618 
1156	 0.282718598842621 
1157	 0.283011943101883 
1158	 0.283357113599777 
1159	 0.283645689487457 
1160	 0.283904075622559 
1161	 0.284251004457474 
1162	 0.284608006477356 
1163	 0.284957349300385 
1164	 0.285349816083908 
1165	 0.285705178976059 
1166	 0.286057323217392 
1167	 0.286388635635376 
1168	 0.286749541759491 
1169	 0.287113964557648 
1170	 0.287486851215363 
1171	 0.287873327732086 
1172	 0.288253486156464 
1173	 0.288631945848465 
1174	 0.288998931646347 
1175	 0.289395689964294 
1176	 0.289801388978958 
1177	 0.29018646478653 
1178	 0.290592044591904 
1179	 0.290984600782394 
1180	 0.291367322206497 
1181	 0.291774839162827 
1182	 0.292190045118332 
1183	 0.292598843574524 
1184	 0.293013781309128 
1185	 0.293427407741547 
1186	 0.293827027082443 
1187	 0.294244110584259 
1188	 0.294676214456558 
1189	 0.295108079910278 
1190	 0.295527637004852 
1191	 0.295948296785355 
1192	 0.296366751194 
1193	 0.296799212694168 
1194	 0.297264814376831 
1195	 0.297729700803757 
1196	 0.298164844512939 
1197	 0.298577129840851 
1198	 0.298954755067825 
1199	 0.299322068691254 
1200	 0.299759477376938 
1201	 0.30022069811821 
1202	 0.300655484199524 
1203	 0.301112771034241 
1204	 0.301549732685089 
1205	 0.301938325166702 
1206	 0.302355647087097 
1207	 0.302785962820053 
1208	 0.303226232528687 
1209	 0.303641229867935 
1210	 0.304086416959763 
1211	 0.304548293352127 
1212	 0.304984658956528 
1213	 0.305457174777985 
1214	 0.305910766124725 
1215	 0.306327760219574 
1216	 0.306768238544464 
1217	 0.307200908660889 
1218	 0.307636231184006 
1219	 0.308115392923355 
1220	 0.308652222156525 
1221	 0.309135317802429 
1222	 0.309643357992172 
1223	 0.310122579336166 
1224	 0.310531765222549 
1225	 0.310989737510681 
1226	 0.31148836016655 
1227	 0.311932235956192 
1228	 0.312349855899811 
1229	 0.312814116477966 
1230	 0.313263386487961 
1231	 0.313709139823914 
1232	 0.314173638820648 
1233	 0.314655363559723 
1234	 0.315160721540451 
1235	 0.315656691789627 
1236	 0.316168695688248 
1237	 0.316714107990265 
1238	 0.317216545343399 
1239	 0.317682594060898 
1240	 0.318156838417053 
1241	 0.318608075380325 
1242	 0.319081008434296 
1243	 0.319569379091263 
1244	 0.320046484470367 
1245	 0.320524781942368 
1246	 0.321018576622009 
1247	 0.321535289287567 
1248	 0.321989148855209 
1249	 0.322433859109879 
1250	 0.322892427444458 
1251	 0.323321610689163 
1252	 0.32377564907074 
1253	 0.324276506900787 
1254	 0.324771106243134 
1255	 0.325248271226883 
1256	 0.325744211673737 
1257	 0.326259523630142 
1258	 0.326733708381653 
1259	 0.327212870121002 
1260	 0.327694147825241 
1261	 0.328170567750931 
1262	 0.32862913608551 
1263	 0.329105585813522 
1264	 0.329609274864197 
1265	 0.330046415328979 
1266	 0.330426692962646 
1267	 0.33087620139122 
1268	 0.331326216459274 
1269	 0.331781297922134 
1270	 0.332292467355728 
1271	 0.332775115966797 
1272	 0.333201378583908 
1273	 0.333654075860977 
1274	 0.334130555391312 
1275	 0.334613382816315 
1276	 0.335137695074081 
1277	 0.335654497146606 
1278	 0.336140483617783 
1279	 0.336604446172714 
1280	 0.337066471576691 
1281	 0.337491273880005 
1282	 0.337949573993683 
1283	 0.338422417640686 
1284	 0.338900983333588 
1285	 0.33940264582634 
1286	 0.339871048927307 
1287	 0.340344130992889 
1288	 0.340782761573792 
1289	 0.341169953346252 
1290	 0.341599941253662 
1291	 0.342038482427597 
1292	 0.342462480068207 
1293	 0.342932820320129 
1294	 0.343365281820297 
1295	 0.34376248717308 
1296	 0.344188004732132 
1297	 0.34458714723587 
1298	 0.345003396272659 
1299	 0.345411330461502 
1300	 0.345790445804596 
1301	 0.346239894628525 
1302	 0.34668442606926 
1303	 0.347111403942108 
1304	 0.347543269395828 
1305	 0.348007529973984 
1306	 0.348451554775238 
1307	 0.348920255899429 
1308	 0.349416226148605 
1309	 0.349949508905411 
1310	 0.350499957799912 
1311	 0.351064801216125 
1312	 0.351701706647873 
1313	 0.352288365364075 
1314	 0.352831721305847 
1315	 0.353415220975876 
1316	 0.353998154401779 
1317	 0.354602634906769 
1318	 0.355248421430588 
1319	 0.355838030576706 
1320	 0.356406033039093 
1321	 0.356999963521957 
1322	 0.357582330703735 
1323	 0.358179807662964 
1324	 0.358740925788879 
1325	 0.359257102012634 
1326	 0.359796345233917 
1327	 0.360280364751816 
1328	 0.360826343297958 
1329	 0.361449092626572 
1330	 0.362008363008499 
1331	 0.36254957318306 
1332	 0.363083511590958 
1333	 0.363568037748337 
1334	 0.364073604345322 
1335	 0.364600598812103 
1336	 0.365110814571381 
1337	 0.365637898445129 
1338	 0.366123348474503 
1339	 0.366569936275482 
1340	 0.367017537355423 
1341	 0.367449820041656 
1342	 0.367840051651001 
1343	 0.368281662464142 
1344	 0.368751674890518 
1345	 0.369213730096817 
1346	 0.369693756103516 
1347	 0.37016898393631 
1348	 0.370582163333893 
1349	 0.37097093462944 
1350	 0.371336936950684 
1351	 0.371676653623581 
1352	 0.371970683336258 
1353	 0.372286587953568 
1354	 0.372591495513916 
1355	 0.372896671295166 
1356	 0.373185098171234 
1357	 0.373503744602203 
1358	 0.373859882354736 
1359	 0.374164313077927 
1360	 0.374456703662872 
1361	 0.374754726886749 
1362	 0.375016212463379 
1363	 0.375293672084808 
1364	 0.37562307715416 
1365	 0.37588569521904 
1366	 0.376125037670136 
1367	 0.376325368881226 
1368	 0.376493752002716 
1369	 0.37662261724472 
1370	 0.376743078231812 
1371	 0.376795470714569 
1372	 0.376801788806915 
1373	 0.376731634140015 
1374	 0.376595556735992 
1375	 0.376390188932419 
1376	 0.376062601804733 
1377	 0.375574439764023 
1378	 0.374882996082306 
1379	 0.373907744884491 
1380	 0.372447937726974 
1381	 0.370753645896912 
1382	 0.368374705314636 
1383	 0.365503072738647 
1384	 0.362112998962402 
1385	 0.358019769191742 
1386	 0.353933721780777 
1387	 0.349168866872787 
1388	 0.344977289438248 
1389	 0.340451002120972 
1390	 0.336882770061493 
1391	 0.333530843257904 
1392	 0.331119209527969 
1393	 0.329442739486694 
1394	 0.328382343053818 
1395	 0.328236877918243 
1396	 0.328292518854141 
1397	 0.329088568687439 
1398	 0.329834848642349 
1399	 0.330893337726593 
1400	 0.331969946622849 
1401	 0.332997411489487 
1402	 0.333931773900986 
1403	 0.334665209054947 
1404	 0.335311233997345 
1405	 0.335873872041702 
1406	 0.336388558149338 
1407	 0.336821854114532 
1408	 0.337194681167603 
1409	 0.337438523769379 
1410	 0.337644308805466 
1411	 0.337912708520889 
1412	 0.338088721036911 
1413	 0.33850884437561 
1414	 0.338963747024536 
1415	 0.339693069458008 
1416	 0.34058353304863 
1417	 0.341733634471893 
1418	 0.343137800693512 
1419	 0.344661444425583 
1420	 0.346524059772491 
1421	 0.348232597112656 
1422	 0.350097864866257 
1423	 0.351774454116821 
1424	 0.353407502174377 
1425	 0.354885458946228 
1426	 0.356285214424133 
1427	 0.357513755559921 
1428	 0.358574122190475 
1429	 0.359553098678589 
1430	 0.360376536846161 
1431	 0.361137360334396 
1432	 0.361769080162048 
1433	 0.362395703792572 
1434	 0.362952083349228 
1435	 0.363462299108505 
1436	 0.364007353782654 
1437	 0.364561229944229 
1438	 0.365102082490921 
1439	 0.365652143955231 
1440	 0.366204261779785 
1441	 0.366769105195999 
1442	 0.367350995540619 
1443	 0.367920875549316 
1444	 0.368514776229858 
1445	 0.369108319282532 
1446	 0.369741529226303 
1447	 0.370408117771149 
1448	 0.371089786291122 
1449	 0.37180233001709 
1450	 0.372503489255905 
1451	 0.373230665922165 
1452	 0.373910814523697 
1453	 0.374579638242722 
1454	 0.375236749649048 
1455	 0.375851362943649 
1456	 0.376490712165833 
1457	 0.377142310142517 
1458	 0.377786636352539 
1459	 0.378415495157242 
1460	 0.379078149795532 
1461	 0.379759222269058 
1462	 0.380429863929749 
1463	 0.381121307611465 
1464	 0.381805866956711 
1465	 0.382470965385437 
1466	 0.38315337896347 
1467	 0.383863747119904 
1468	 0.384547829627991 
1469	 0.385209292173386 
1470	 0.385895133018494 
1471	 0.386581659317017 
1472	 0.387272864580154 
1473	 0.387991428375244 
1474	 0.388690799474716 
1475	 0.389373600482941 
1476	 0.390064746141434 
1477	 0.390745133161545 
1478	 0.391412377357483 
1479	 0.392107546329498 
1480	 0.392767310142517 
1481	 0.393407225608826 
1482	 0.394102543592453 
1483	 0.394767373800278 
1484	 0.395370066165924 
1485	 0.395973950624466 
1486	 0.396554410457611 
1487	 0.397094070911407 
1488	 0.397651612758636 
1489	 0.398189753293991 
1490	 0.398707926273346 
1491	 0.399278283119202 
1492	 0.399821937084198 
1493	 0.400309860706329 
1494	 0.400785326957703 
1495	 0.401226103305817 
1496	 0.401574611663818 
1497	 0.401995331048965 
1498	 0.402444690465927 
1499	 0.402880966663361 
1500	 0.403332084417343 
1501	 0.403750687837601 
1502	 0.4041688144207 
1503	 0.404551357030869 
1504	 0.404890894889832 
1505	 0.405259042978287 
1506	 0.405621647834778 
1507	 0.405962020158768 
1508	 0.406316846609116 
1509	 0.406640738248825 
1510	 0.406912237405777 
1511	 0.407222419977188 
1512	 0.40752300620079 
1513	 0.407850652933121 
1514	 0.40821760892868 
1515	 0.40856397151947 
1516	 0.408916175365448 
1517	 0.409272879362106 
1518	 0.409611076116562 
1519	 0.409970313310623 
1520	 0.410360872745514 
1521	 0.410724341869354 
1522	 0.411093562841415 
1523	 0.411444574594498 
1524	 0.411762237548828 
1525	 0.412101656198502 
1526	 0.41240793466568 
1527	 0.412767678499222 
1528	 0.41319876909256 
1529	 0.413586288690567 
1530	 0.413967430591583 
1531	 0.414384484291077 
1532	 0.414765745401382 
1533	 0.415086567401886 
1534	 0.41546368598938 
1535	 0.415870785713196 
1536	 0.416271686553955 
1537	 0.416715413331985 
1538	 0.417117148637772 
1539	 0.417436987161636 
1540	 0.417778313159943 
1541	 0.41816583275795 
1542	 0.418571382761002 
1543	 0.41903480887413 
1544	 0.419505655765533 
1545	 0.419896453619003 
1546	 0.420336574316025 
1547	 0.420825600624084 
1548	 0.421285808086395 
1549	 0.421791106462479 
1550	 0.422241151332855 
1551	 0.422641903162003 
1552	 0.423075973987579 
1553	 0.423474043607712 
1554	 0.423919200897217 
1555	 0.424431025981903 
1556	 0.42493662238121 
1557	 0.42544949054718 
1558	 0.425960600376129 
1559	 0.426445037126541 
1560	 0.426943957805634 
1561	 0.42746901512146 
1562	 0.427951842546463 
1563	 0.428457289934158 
1564	 0.428974181413651 
1565	 0.429438829421997 
1566	 0.429965287446976 
1567	 0.430519968271255 
1568	 0.431043744087219 
1569	 0.431575387716293 
1570	 0.432081967592239 
1571	 0.432527512311935 
1572	 0.433057188987732 
1573	 0.433607906103134 
1574	 0.43417876958847 
1575	 0.434825241565704 
1576	 0.435419619083405 
1577	 0.435994893312454 
1578	 0.436565577983856 
1579	 0.437133878469467 
1580	 0.437686741352081 
1581	 0.438211679458618 
1582	 0.438771992921829 
1583	 0.439325869083405 
1584	 0.439891040325165 
1585	 0.440505415201187 
1586	 0.441079705953598 
1587	 0.441630929708481 
1588	 0.442193657159805 
1589	 0.442745268344879 
1590	 0.443294227123261 
1591	 0.443838179111481 
1592	 0.444406807422638 
1593	 0.444997400045395 
1594	 0.445550739765167 
1595	 0.446095168590546 
1596	 0.446655660867691 
1597	 0.447191268205643 
1598	 0.447749137878418 
1599	 0.44834691286087 
1600	 0.448906242847443 
1601	 0.449439823627472 
1602	 0.44999897480011 
1603	 0.450552105903625 
1604	 0.451129019260406 
1605	 0.4517522752285 
1606	 0.452316284179688 
1607	 0.452866673469543 
1608	 0.453402668237686 
1609	 0.453883022069931 
1610	 0.454400837421417 
1611	 0.454944372177124 
1612	 0.4554663002491 
1613	 0.455976814031601 
1614	 0.456503838300705 
1615	 0.457016706466675 
1616	 0.457559198141098 
1617	 0.458145946264267 
1618	 0.458710044622421 
1619	 0.459283441305161 
1620	 0.459814012050629 
1621	 0.460310786962509 
1622	 0.46082130074501 
1623	 0.46133279800415 
1624	 0.461814075708389 
1625	 0.462274342775345 
1626	 0.462762147188187 
1627	 0.463226109743118 
1628	 0.463709145784378 
1629	 0.464225053787231 
1630	 0.46473103761673 
1631	 0.465236335992813 
1632	 0.46573469042778 
1633	 0.466247498989105 
1634	 0.466742098331451 
1635	 0.467208445072174 
1636	 0.467680633068085 
1637	 0.468149840831757 
1638	 0.468623638153076 
1639	 0.469109058380127 
1640	 0.469585984945297 
1641	 0.470057189464569 
1642	 0.470540016889572 
1643	 0.470998555421829 
1644	 0.471468329429626 
1645	 0.471975535154343 
1646	 0.472455203533173 
1647	 0.472941279411316 
1648	 0.473412036895752 
1649	 0.47384774684906 
1650	 0.474299669265747 
1651	 0.474727272987366 
1652	 0.475191175937653 
1653	 0.47571536898613 
1654	 0.476176649332047 
1655	 0.476627171039581 
1656	 0.477056384086609 
1657	 0.477438896894455 
1658	 0.477823317050934 
1659	 0.478204399347305 
1660	 0.4786097407341 
1661	 0.479017198085785 
1662	 0.479387193918228 
1663	 0.479745030403137 
1664	 0.48012712597847 
1665	 0.480486661195755 
1666	 0.480895847082138 
1667	 0.481316864490509 
1668	 0.481735110282898 
1669	 0.482123732566834 
1670	 0.482540130615234 
1671	 0.482970327138901 
1672	 0.483393430709839 
1673	 0.483828961849213 
1674	 0.484193593263626 
1675	 0.484545797109604 
1676	 0.484917521476746 
1677	 0.485266983509064 
1678	 0.485641449689865 
1679	 0.486000508069992 
1680	 0.486326903104782 
1681	 0.486669421195984 
1682	 0.487016618251801 
1683	 0.487435817718506 
1684	 0.487841367721558 
1685	 0.488182663917542 
1686	 0.488599419593811 
1687	 0.488958895206451 
1688	 0.489305555820465 
1689	 0.489707291126251 
1690	 0.490021646022797 
1691	 0.490312159061432 
1692	 0.490586429834366 
1693	 0.490874826908112 
1694	 0.4912129342556 
1695	 0.491557419300079 
1696	 0.491960316896439 
1697	 0.492367565631866 
1698	 0.49271696805954 
1699	 0.493048191070557 
1700	 0.493323802947998 
1701	 0.493618935346603 
1702	 0.493960410356522 
1703	 0.494287610054016 
1704	 0.494677752256393 
1705	 0.495006918907166 
1706	 0.495237857103348 
1707	 0.495490849018097 
1708	 0.49574875831604 
1709	 0.496023535728455 
1710	 0.496314704418182 
1711	 0.496589779853821 
1712	 0.496859431266785 
1713	 0.497140735387802 
1714	 0.497387170791626 
1715	 0.497637033462524 
1716	 0.497907549142838 
1717	 0.498096913099289 
1718	 0.498311758041382 
1719	 0.498576879501343 
1720	 0.49876481294632 
1721	 0.498950451612473 
1722	 0.499162673950195 
1723	 0.499446779489517 
1724	 0.499776095151901 
1725	 0.500020980834961 
1726	 0.500276327133179 
1727	 0.500486433506012 
1728	 0.500647664070129 
1729	 0.500854551792145 
1730	 0.501064240932465 
1731	 0.501220405101776 
1732	 0.501345753669739 
1733	 0.501465260982513 
1734	 0.501576840877533 
1735	 0.501678466796875 
1736	 0.501756131649017 
1737	 0.501893043518066 
1738	 0.501979827880859 
1739	 0.50216418504715 
1740	 0.502405524253845 
1741	 0.502588033676147 
1742	 0.502756297588348 
1743	 0.502874672412872 
1744	 0.502946496009827 
1745	 0.502997159957886 
1746	 0.503037452697754 
1747	 0.503101229667664 
1748	 0.50318831205368 
1749	 0.503265798091888 
1750	 0.503348588943481 
1751	 0.503438234329224 
1752	 0.503451347351074 
1753	 0.503497898578644 
1754	 0.503587961196899 
1755	 0.503572523593903 
1756	 0.503555119037628 
1757	 0.503538548946381 
1758	 0.503519892692566 
1759	 0.503576099872589 
1760	 0.503641784191132 
1761	 0.503735601902008 
1762	 0.503817737102509 
1763	 0.503835499286652 
1764	 0.503916263580322 
1765	 0.503992021083832 
1766	 0.503987848758698 
1767	 0.504038274288177 
1768	 0.504051923751831 
1769	 0.504022061824799 
1770	 0.504041731357574 
1771	 0.504056036472321 
1772	 0.504102885723114 
1773	 0.504124820232391 
1774	 0.504122495651245 
1775	 0.504118800163269 
1776	 0.504053115844727 
1777	 0.504061460494995 
1778	 0.504091441631317 
1779	 0.504126727581024 
1780	 0.504169821739197 
1781	 0.504162907600403 
1782	 0.504142045974731 
1783	 0.504168570041656 
1784	 0.504168212413788 
1785	 0.504131972789764 
1786	 0.504101157188416 
1787	 0.504050314426422 
1788	 0.504024207592011 
1789	 0.504033923149109 
1790	 0.504028975963593 
1791	 0.504005134105682 
1792	 0.503954589366913 
1793	 0.50387167930603 
1794	 0.503767013549805 
1795	 0.503711998462677 
1796	 0.503725290298462 
1797	 0.503762900829315 
1798	 0.503845036029816 
1799	 0.503881216049194 
1800	 0.503837764263153 
1801	 0.503778100013733 
1802	 0.503699123859406 
1803	 0.503601014614105 
1804	 0.503491163253784 
1805	 0.503405272960663 
1806	 0.503300130367279 
1807	 0.503222107887268 
1808	 0.503190398216248 
1809	 0.503127217292786 
1810	 0.50305050611496 
1811	 0.502889692783356 
1812	 0.502752542495728 
1813	 0.502579987049103 
1814	 0.502398729324341 
1815	 0.502303302288055 
1816	 0.502168536186218 
1817	 0.502001762390137 
1818	 0.501920282840729 
1819	 0.501777470111847 
1820	 0.501621544361115 
1821	 0.501540780067444 
1822	 0.501431882381439 
1823	 0.501331269741058 
1824	 0.501228451728821 
1825	 0.501098394393921 
1826	 0.500935673713684 
1827	 0.500762522220612 
1828	 0.500570714473724 
1829	 0.500336110591888 
1830	 0.500119745731354 
1831	 0.514786541461945 
1832	 0.514620423316956 
1833	 0.514315903186798 
1834	 0.513930082321167 
1835	 0.513544917106628 
1836	 0.513064086437225 
1837	 0.512603163719177 
1838	 0.512148559093475 
1839	 0.511710703372955 
1840	 0.511106252670288 
1841	 0.510506510734558 
1842	 0.510032415390015 
1843	 0.509392499923706 
1844	 0.508767068386078 
1845	 0.508246183395386 
1846	 0.507575452327728 
1847	 0.506763696670532 
1848	 0.505975902080536 
1849	 0.505204498767853 
1850	 0.504363477230072 
1851	 0.503490388393402 
1852	 0.502630770206451 
1853	 0.501770496368408 
1854	 0.500885486602783 
1855	 0.499956518411636 
1856	 0.499022096395493 
1857	 0.49802553653717 
1858	 0.496971279382706 
1859	 0.495879501104355 
1860	 0.494762361049652 
1861	 0.493712872266769 
1862	 0.492535144090652 
1863	 0.49127796292305 
1864	 0.490043133497238 
1865	 0.488671332597733 
1866	 0.487238198518753 
1867	 0.485723733901978 
1868	 0.484205305576324 
1869	 0.482649832963943 
1870	 0.480988621711731 
1871	 0.479280650615692 
1872	 0.477441608905792 
1873	 0.47537961602211 
1874	 0.473261445760727 
1875	 0.471060246229172 
1876	 0.468840330839157 
1877	 0.466534376144409 
1878	 0.464192867279053 
1879	 0.461723834276199 
1880	 0.459147453308105 
1881	 0.456397831439972 
1882	 0.453623592853546 
1883	 0.450693398714066 
1884	 0.447575747966766 
1885	 0.444485992193222 
1886	 0.441149979829788 
1887	 0.43769508600235 
1888	 0.43416690826416 
1889	 0.430602043867111 
1890	 0.426735430955887 
1891	 0.422802597284317 
1892	 0.418858557939529 
1893	 0.414754271507263 
1894	 0.410706043243408 
1895	 0.406655848026276 
1896	 0.402511358261108 
1897	 0.398421049118042 
1898	 0.39440780878067 
1899	 0.390587896108627 
1900	 0.386859536170959 
1901	 0.383405476808548 
1902	 0.380184769630432 
1903	 0.37716680765152 
1904	 0.374412566423416 
1905	 0.371827960014343 
1906	 0.369513928890228 
1907	 0.367601454257965 
1908	 0.366032123565674 
1909	 0.364737451076508 
1910	 0.36362236738205 
1911	 0.362771272659302 
1912	 0.362057149410248 
1913	 0.361564725637436 
1914	 0.361252158880234 
1915	 0.361147165298462 
1916	 0.361215859651566 
1917	 0.361318349838257 
1918	 0.361560553312302 
1919	 0.361906737089157 
1920	 0.362191051244736 
1921	 0.362487971782684 
1922	 0.362826526165009 
1923	 0.363187432289124 
1924	 0.363505661487579 
1925	 0.363867908716202 
1926	 0.364212870597839 
1927	 0.364523082971573 
1928	 0.364847809076309 
1929	 0.365168452262878 
1930	 0.365511327981949 
1931	 0.365780919790268 
1932	 0.365996271371841 
1933	 0.366270512342453 
1934	 0.36657389998436 
1935	 0.366832077503204 
1936	 0.367096453905106 
1937	 0.367388844490051 
1938	 0.367525964975357 
1939	 0.367668211460114 
1940	 0.367877781391144 
1941	 0.368042588233948 
1942	 0.368166863918304 
1943	 0.368240118026733 
1944	 0.368346273899078 
1945	 0.368377536535263 
1946	 0.368469089269638 
1947	 0.36856684088707 
1948	 0.368822395801544 
1949	 0.36901918053627 
1950	 0.369250684976578 
1951	 0.369534552097321 
1952	 0.369712054729462 
1953	 0.369934171438217 
1954	 0.370234310626984 
1955	 0.370504438877106 
1956	 0.370824486017227 
1957	 0.371130615472794 
1958	 0.371427297592163 
1959	 0.371690541505814 
1960	 0.371925920248032 
1961	 0.37221947312355 
1962	 0.372524678707123 
1963	 0.372802138328552 
1964	 0.373038738965988 
1965	 0.373311311006546 
1966	 0.373621910810471 
1967	 0.37392857670784 
1968	 0.374179005622864 
1969	 0.374446094036102 
1970	 0.374703645706177 
1971	 0.374854356050491 
1972	 0.375069677829742 
1973	 0.375352501869202 
1974	 0.375664114952087 
1975	 0.37585711479187 
1976	 0.376046061515808 
1977	 0.376252740621567 
1978	 0.376410961151123 
1979	 0.376672297716141 
1980	 0.377025991678238 
1981	 0.377308756113052 
1982	 0.37758406996727 
1983	 0.377895385026932 
1984	 0.378115385770798 
1985	 0.378480583429337 
1986	 0.378935933113098 
1987	 0.379490047693253 
1988	 0.380011081695557 
1989	 0.380526512861252 
1990	 0.381057947874069 
1991	 0.381558984518051 
1992	 0.382092177867889 
1993	 0.382677793502808 
1994	 0.383274167776108 
1995	 0.383837670087814 
1996	 0.384505927562714 
1997	 0.385260492563248 
1998	 0.386004954576492 
1999	 0.386783629655838 
2000	 0.387627601623535 
2001	 0.388396799564362 
2002	 0.389177203178406 
2003	 0.390032947063446 
2004	 0.390935242176056 
2005	 0.391994178295136 
2006	 0.39305716753006 
2007	 0.394037246704102 
2008	 0.394941240549088 
2009	 0.395963490009308 
2010	 0.396964609622955 
2011	 0.398040294647217 
2012	 0.399230092763901 
2013	 0.400436818599701 
2014	 0.401591390371323 
2015	 0.402708828449249 
2016	 0.403873473405838 
2017	 0.405171602964401 
2018	 0.406541705131531 
2019	 0.40793564915657 
2020	 0.409284889698029 
2021	 0.410665094852448 
2022	 0.41197544336319 
2023	 0.413203060626984 
2024	 0.414508372545242 
2025	 0.415792971849442 
2026	 0.417156577110291 
2027	 0.418633371591568 
2028	 0.42003121972084 
2029	 0.421345353126526 
2030	 0.422609776258469 
2031	 0.423852533102036 
2032	 0.425128996372223 
2033	 0.426424831151962 
2034	 0.427838355302811 
2035	 0.429164886474609 
2036	 0.430437028408051 
2037	 0.431697279214859 
2038	 0.43296754360199 
2039	 0.434181571006775 
2040	 0.435343205928802 
2041	 0.436495780944824 
2042	 0.437573969364166 
2043	 0.438726633787155 
2044	 0.439911454916 
2045	 0.441088497638702 
2046	 0.442231386899948 
2047	 0.443240582942963 
2048	 0.444208145141602 
2049	 0.445025950670242 
2050	 0.445958405733109 
2051	 0.446923494338989 
2052	 0.447802126407623 
2053	 0.448688626289368 
2054	 0.449529528617859 
2055	 0.450222462415695 
2056	 0.451031178236008 
2057	 0.451924055814743 
2058	 0.452750146389008 
2059	 0.453522592782974 
2060	 0.454350769519806 
2061	 0.455177992582321 
2062	 0.455892980098724 
2063	 0.456657648086548 
2064	 0.457431197166443 
2065	 0.458064496517181 
2066	 0.458542078733444 
2067	 0.45912030339241 
2068	 0.459671795368195 
2069	 0.460181772708893 
2070	 0.460672795772552 
2071	 0.461219191551209 
2072	 0.461740285158157 
2073	 0.462279111146927 
2074	 0.462861031293869 
2075	 0.463428825139999 
2076	 0.463871955871582 
2077	 0.464287161827087 
2078	 0.464697122573853 
2079	 0.465151607990265 
2080	 0.46561136841774 
2081	 0.466135174036026 
2082	 0.466469466686249 
2083	 0.466744691133499 
2084	 0.467002540826797 
2085	 0.467107713222504 
2086	 0.46730625629425 
2087	 0.467659205198288 
2088	 0.467804580926895 
2089	 0.46787229180336 
2090	 0.467806041240692 
2091	 0.467741727828979 
2092	 0.467597842216492 
2093	 0.467455744743347 
2094	 0.467324405908585 
2095	 0.467056840658188 
2096	 0.466730147600174 
2097	 0.466523468494415 
2098	 0.466369599103928 
2099	 0.466185361146927 
2100	 0.466040432453156 
2101	 0.465888768434525 
2102	 0.465756118297577 
2103	 0.465563327074051 
2104	 0.465361475944519 
2105	 0.465164512395859 
2106	 0.464932650327683 
2107	 0.464611768722534 
2108	 0.464355409145355 
2109	 0.464336723089218 
2110	 0.46433213353157 
2111	 0.464086502790451 
2112	 0.463949769735336 
2113	 0.463859617710114 
2114	 0.463760912418365 
2115	 0.463683009147644 
2116	 0.463625937700272 
2117	 0.463597804307938 
2118	 0.463537365198135 
2119	 0.463439971208572 
2120	 0.463424503803253 
2121	 0.463416695594788 
2122	 0.463441520929337 
2123	 0.463569670915604 
2124	 0.463637262582779 
2125	 0.463709831237793 
2126	 0.463784843683243 
2127	 0.463696390390396 
2128	 0.463588148355484 
2129	 0.463541716337204 
2130	 0.463387876749039 
2131	 0.463267296552658 
2132	 0.463280558586121 
2133	 0.463242620229721 
2134	 0.463255792856216 
2135	 0.463101863861084 
2136	 0.462899625301361 
2137	 0.462644726037979 
2138	 0.462240427732468 
2139	 0.461844742298126 
2140	 0.461509793996811 
2141	 0.461035966873169 
2142	 0.460530936717987 
2143	 0.459834396839142 
2144	 0.459012120962143 
2145	 0.458030164241791 
2146	 0.456979990005493 
2147	 0.455857694149017 
2148	 0.454655200242996 
2149	 0.453549087047577 
2150	 0.452452927827835 
2151	 0.451260507106781 
2152	 0.450026005506516 
2153	 0.448727071285248 
2154	 0.447550624608994 
2155	 0.446323782205582 
2156	 0.445179343223572 
2157	 0.444221556186676 
2158	 0.443168669939041 
2159	 0.441966772079468 
2160	 0.440947353839874 
2161	 0.440015316009521 
2162	 0.439148277044296 
2163	 0.438410997390747 
2164	 0.437681764364243 
2165	 0.436862766742706 
2166	 0.436095118522644 
2167	 0.435399413108826 
2168	 0.434683531522751 
2169	 0.433970153331757 
2170	 0.433291405439377 
2171	 0.43258348107338 
2172	 0.431842148303986 
2173	 0.431041926145554 
2174	 0.430253565311432 
2175	 0.429423391819 
2176	 0.428532928228378 
2177	 0.427572280168533 
2178	 0.426642954349518 
2179	 0.425607651472092 
2180	 0.424460470676422 
2181	 0.423192054033279 
2182	 0.421850115060806 
2183	 0.420416384935379 
2184	 0.418762773275375 
2185	 0.417149513959885 
2186	 0.415503323078156 
2187	 0.413894772529602 
2188	 0.412124931812286 
2189	 0.410347253084183 
2190	 0.408507645130157 
2191	 0.406660735607147 
2192	 0.404850780963898 
2193	 0.402958989143372 
2194	 0.401129603385925 
2195	 0.399275153875351 
2196	 0.397360533475876 
2197	 0.395508617162704 
2198	 0.393446892499924 
2199	 0.391218513250351 
2200	 0.389019250869751 
2201	 0.386730909347534 
2202	 0.38434112071991 
2203	 0.381903856992722 
2204	 0.379423379898071 
2205	 0.376583456993103 
2206	 0.374220997095108 
2207	 0.371770560741425 
2208	 0.369993954896927 
2209	 0.368720442056656 
2210	 0.36778399348259 
2211	 0.367344230413437 
2212	 0.36725777387619 
2213	 0.367411673069 
2214	 0.367719113826752 
2215	 0.368190079927444 
2216	 0.368627995252609 
2217	 0.368798851966858 
2218	 0.368731707334518 
2219	 0.368193417787552 
2220	 0.367119163274765 
2221	 0.365947037935257 
2222	 0.364439845085144 
2223	 0.362756818532944 
2224	 0.360953718423843 
2225	 0.358837813138962 
2226	 0.356336623430252 
2227	 0.353750824928284 
2228	 0.350875347852707 
2229	 0.348018854856491 
2230	 0.345114886760712 
2231	 0.342002958059311 
2232	 0.338715225458145 
2233	 0.335383117198944 
2234	 0.331736862659454 
2235	 0.328297555446625 
2236	 0.324997901916504 
2237	 0.321589171886444 
2238	 0.318121373653412 
2239	 0.314736098051071 
2240	 0.311408430337906 
2241	 0.308161079883575 
2242	 0.305275171995163 
2243	 0.302674859762192 
2244	 0.300112664699554 
2245	 0.297715216875076 
2246	 0.295599102973938 
2247	 0.293697208166122 
2248	 0.292156249284744 
2249	 0.291033536195755 
2250	 0.290215104818344 
2251	 0.289679914712906 
2252	 0.289433151483536 
2253	 0.289524108171463 
2254	 0.289903789758682 
2255	 0.290671408176422 
2256	 0.291493445634842 
2257	 0.292640447616577 
2258	 0.293745964765549 
2259	 0.29498165845871 
2260	 0.296145170927048 
2261	 0.297419816255569 
2262	 0.298645824193954 
2263	 0.299842923879623 
2264	 0.300935000181198 
2265	 0.302138477563858 
2266	 0.302993148565292 
2267	 0.303578525781631 
2268	 0.304155796766281 
2269	 0.304511666297913 
2270	 0.304846435785294 
2271	 0.305148959159851 
2272	 0.305406391620636 
2273	 0.305511653423309 
2274	 0.305403888225555 
2275	 0.305150806903839 
2276	 0.304756283760071 
2277	 0.304140836000443 
2278	 0.303494662046433 
2279	 0.302636533975601 
2280	 0.301406502723694 
2281	 0.300036936998367 
2282	 0.298526555299759 
2283	 0.296884417533875 
2284	 0.295119285583496 
2285	 0.293231248855591 
2286	 0.291314959526062 
2287	 0.289317935705185 
2288	 0.287294954061508 
2289	 0.285282701253891 
2290	 0.283172130584717 
2291	 0.281268000602722 
2292	 0.279391646385193 
2293	 0.277731955051422 
2294	 0.276317775249481 
2295	 0.274902194738388 
2296	 0.273556560277939 
2297	 0.272345811128616 
2298	 0.271208703517914 
2299	 0.270171523094177 
2300	 0.269380062818527 
2301	 0.268435180187225 
2302	 0.267598420381546 
2303	 0.266609758138657 
2304	 0.265401035547256 
2305	 0.264304786920547 
2306	 0.263278603553772 
2307	 0.262060135602951 
2308	 0.260819435119629 
2309	 0.259547382593155 
2310	 0.258032768964767 
2311	 0.256625801324844 
2312	 0.255268156528473 
2313	 0.253945469856262 
2314	 0.252668827772141 
2315	 0.251405417919159 
2316	 0.250123977661133 
2317	 0.24893581867218 
2318	 0.247929945588112 
2319	 0.246895387768745 
2320	 0.245954766869545 
2321	 0.245094522833824 
2322	 0.24429352581501 
2323	 0.243621602654457 
2324	 0.243105471134186 
2325	 0.24275067448616 
2326	 0.242356449365616 
2327	 0.241917431354523 
2328	 0.241640746593475 
2329	 0.241477712988853 
2330	 0.241348296403885 
2331	 0.241252034902573 
2332	 0.241189256310463 
2333	 0.241129234433174 
2334	 0.241038158535957 
2335	 0.241227522492409 
2336	 0.241656810045242 
2337	 0.241818681359291 
2338	 0.242150783538818 
2339	 0.242611408233643 
2340	 0.242586955428123 
2341	 0.242880657315254 
2342	 0.243503153324127 
2343	 0.243925988674164 
2344	 0.2445899695158 
2345	 0.245416834950447 
2346	 0.246065407991409 
2347	 0.246615216135979 
2348	 0.247365593910217 
2349	 0.248173072934151 
2350	 0.24893918633461 
2351	 0.249766930937767 
2352	 0.250471949577332 
2353	 0.25108990073204 
2354	 0.251718580722809 
2355	 0.252153992652893 
2356	 0.253026485443115 
2357	 0.254157036542892 
2358	 0.255114436149597 
2359	 0.256252378225327 
2360	 0.257256031036377 
2361	 0.258069038391113 
2362	 0.259050190448761 
2363	 0.260276079177856 
2364	 0.261117309331894 
2365	 0.261626720428467 
2366	 0.26250496506691 
2367	 0.263386636972427 
2368	 0.26436585187912 
2369	 0.26584005355835 
2370	 0.26661291718483 
2371	 0.26693657040596 
2372	 0.267509311437607 
2373	 0.2678142786026 
2374	 0.268307834863663 
2375	 0.269227415323257 
2376	 0.269516676664352 
2377	 0.269361793994904 
2378	 0.26951864361763 
2379	 0.269487798213959 
2380	 0.269543707370758 
2381	 0.269937723875046 
2382	 0.270007491111755 
2383	 0.269752949476242 
2384	 0.269669681787491 
2385	 0.269608795642853 
2386	 0.269523710012436 
2387	 0.269546627998352 
2388	 0.269366145133972 
2389	 0.26890754699707 
2390	 0.268660575151443 
2391	 0.268329232931137 
2392	 0.268350869417191 
2393	 0.268669247627258 
2394	 0.269004553556442 
2395	 0.269573181867599 
2396	 0.269927203655243 
2397	 0.270269870758057 
2398	 0.270675808191299 
2399	 0.270955622196198 
2400	 0.271406203508377 
2401	 0.272143661975861 
2402	 0.272516846656799 
2403	 0.272703677415848 
2404	 0.273053079843521 
2405	 0.273362934589386 
2406	 0.273630052804947 
2407	 0.273999124765396 
2408	 0.274225443601608 
2409	 0.274268746376038 
2410	 0.274227470159531 
2411	 0.274134248495102 
2412	 0.274136513471603 
2413	 0.274147808551788 
2414	 0.273914247751236 
2415	 0.273585110902786 
2416	 0.273328334093094 
2417	 0.273003101348877 
2418	 0.272359311580658 
2419	 0.271583706140518 
2420	 0.271004974842072 
2421	 0.270176500082016 
2422	 0.269401043653488 
2423	 0.269016414880753 
2424	 0.268304884433746 
2425	 0.266996413469315 
2426	 0.266310304403305 
2427	 0.266130924224854 
2428	 0.265374928712845 
2429	 0.264604508876801 
2430	 0.263830304145813 
2431	 0.262616157531738 
2432	 0.261761784553528 
2433	 0.261153101921082 
2434	 0.260466277599335 
2435	 0.259961038827896 
2436	 0.259061902761459 
2437	 0.258010238409042 
2438	 0.257021069526672 
2439	 0.255655437707901 
2440	 0.254669368267059 
2441	 0.25394931435585 
2442	 0.25323349237442 
2443	 0.252613633871078 
2444	 0.25190794467926 
2445	 0.251343309879303 
2446	 0.250614553689957 
2447	 0.249605044722557 
2448	 0.249117702245712 
2449	 0.248943611979485 
2450	 0.248311847448349 
2451	 0.247786894440651 
2452	 0.247068211436272 
2453	 0.245966732501984 
2454	 0.244758382439613 
2455	 0.243998989462852 
2456	 0.243779554963112 
2457	 0.242953106760979 
2458	 0.242567047476768 
2459	 0.24260838329792 
2460	 0.241977974772453 
2461	 0.241138130426407 
2462	 0.240347266197205 
2463	 0.2394630163908 
2464	 0.238160163164139 
2465	 0.237386450171471 
2466	 0.236672565340996 
2467	 0.236533090472221 
2468	 0.237941041588783 
2469	 0.238010078668594 
2470	 0.237545162439346 
2471	 0.237135320901871 
2472	 0.235482886433601 
2473	 0.234570801258087 
2474	 0.234642416238785 
2475	 0.234112441539764 
2476	 0.233053088188171 
2477	 0.232514098286629 
2478	 0.231854543089867 
2479	 0.23167496919632 
2480	 0.232661634683609 
2481	 0.232651710510254 
2482	 0.232375249266624 
2483	 0.231863379478455 
2484	 0.230158776044846 
2485	 0.229625657200813 
2486	 0.229844182729721 
2487	 0.229633897542953 
2488	 0.229781821370125 
2489	 0.229815095663071 
2490	 0.22971074283123 
2491	 0.229215130209923 
2492	 0.228431075811386 
2493	 0.228219509124756 
2494	 0.227870866656303 
2495	 0.227460816502571 
2496	 0.227587595582008 
2497	 0.227587893605232 
2498	 0.227047458291054 
2499	 0.226943269371986 
2500	 0.227702811360359 
