
Text conversion of header file \A_MEDIDAS\PROJETOS\BRASIL\BLOCO GAVIAO\JACOBINA\CANIF27\sco\CANIF27_033.20_00001.asd.ref
 -------------------------------------------------------------
                                                                                                                                                            
The instrument number was  16586/1
New ASD spectrum file: Program version = 6.00 file version = 1.00
Spectrum saved: 10/16/2018 at 10:22:09
VNIR integration time : 34
VNIR channel 1 wavelength = 350 wavelength step = 1
There were 50 samples per data value
xmin = 350 xmax= 2500
ymin= 0 ymax= 1.25
The instrument digitizes spectral values to 16 bits
SWIR1 gain was 203 offset was 2094
SWIR2 gain was 499 offset was 2264
Join between VNIR and SWIR1 was 1000 nm
Join between SWIR1 and SWIR2 was 1830 nm
Absolute Reflectance is Enabled
The Absolute Reflectance File is abs165861.ref
VNIR dark signal subtracted
50 dark measurements taken Tue Oct 16 10:13:56 2018
DCC value was 0
Data is compared to a white reference:
60 white reference measurements taken Tue Oct 16 10:14:04 2018
There was no foreoptic attached
Spectrum file is reflectance data
GPS-Latitude is S0
GPS-Longitude is E0
GPS-Altitude is 0
GPS-UTC is Wed Dec 31 17:00:00 1969

Smart Detector
Serial#  0
Signal (A)  0.000E00
Dark (A)  0.000E00
Ref (A)  0.000E00
Status  0 - Uninitialized
Gain  E-4
Averaging  0
Temp (C)  0.0
Humid (%)  0.0

Reflectance Absolute
Wavelength	CANIF27_33.20_00001.asd.ref
350	 0.202836826443672 
351	 0.190693482756615 
352	 0.19496688246727 
353	 0.208215922117233 
354	 0.216379463672638 
355	 0.204790651798248 
356	 0.201805010437965 
357	 0.200956538319588 
358	 0.192373275756836 
359	 0.207760393619537 
360	 0.208566933870316 
361	 0.196720078587532 
362	 0.199770644307137 
363	 0.20178610086441 
364	 0.204394966363907 
365	 0.207462757825851 
366	 0.205773070454597 
367	 0.202398300170898 
368	 0.201706409454346 
369	 0.205223053693771 
370	 0.206616088747978 
371	 0.206369951367378 
372	 0.205941528081894 
373	 0.206891447305679 
374	 0.208685785531998 
375	 0.209557697176933 
376	 0.208331689238548 
377	 0.204644024372101 
378	 0.205774262547493 
379	 0.208380252122879 
380	 0.20920105278492 
381	 0.210060626268387 
382	 0.210174292325974 
383	 0.210301324725151 
384	 0.211055517196655 
385	 0.209071606397629 
386	 0.20803390443325 
387	 0.208731099963188 
388	 0.209119603037834 
389	 0.210624948143959 
390	 0.210377186536789 
391	 0.208140552043915 
392	 0.210443705320358 
393	 0.211585536599159 
394	 0.210787892341614 
395	 0.20929254591465 
396	 0.209435477852821 
397	 0.210350334644318 
398	 0.211060553789139 
399	 0.210746571421623 
400	 0.209844425320625 
401	 0.209790393710136 
402	 0.210921570658684 
403	 0.211574092507362 
404	 0.211059510707855 
405	 0.210576236248016 
406	 0.211230471730232 
407	 0.21126364171505 
408	 0.211256667971611 
409	 0.210868775844574 
410	 0.209446638822556 
411	 0.210262566804886 
412	 0.210798367857933 
413	 0.209918677806854 
414	 0.209758698940277 
415	 0.209652632474899 
416	 0.209598317742348 
417	 0.20971654355526 
418	 0.210086703300476 
419	 0.210201010107994 
420	 0.210151165723801 
421	 0.210360378026962 
422	 0.210476726293564 
423	 0.21069672703743 
424	 0.210876047611237 
425	 0.210254475474358 
426	 0.210049360990524 
427	 0.21023291349411 
428	 0.210416868329048 
429	 0.21023827791214 
430	 0.210184082388878 
431	 0.210459619760513 
432	 0.211014464497566 
433	 0.211381077766418 
434	 0.211544379591942 
435	 0.211568266153336 
436	 0.211506634950638 
437	 0.211739540100098 
438	 0.212213128805161 
439	 0.212682962417603 
440	 0.212702482938766 
441	 0.212921008467674 
442	 0.213367760181427 
443	 0.213638216257095 
444	 0.213397115468979 
445	 0.213431015610695 
446	 0.213953003287315 
447	 0.214032828807831 
448	 0.214226022362709 
449	 0.214569419622421 
450	 0.214908570051193 
451	 0.214926064014435 
452	 0.214943021535873 
453	 0.215089038014412 
454	 0.215316131711006 
455	 0.215441599488258 
456	 0.215584129095078 
457	 0.215727299451828 
458	 0.21546396613121 
459	 0.215553626418114 
460	 0.215835750102997 
461	 0.215946033596992 
462	 0.216188937425613 
463	 0.216255486011505 
464	 0.216165125370026 
465	 0.216232463717461 
466	 0.216301262378693 
467	 0.21649594604969 
468	 0.21677428483963 
469	 0.216565757989883 
470	 0.216672509908676 
471	 0.216994509100914 
472	 0.217135265469551 
473	 0.217296659946442 
474	 0.217400804162025 
475	 0.217499420046806 
476	 0.217789858579636 
477	 0.218160018324852 
478	 0.218351751565933 
479	 0.218318462371826 
480	 0.218666926026344 
481	 0.219002559781075 
482	 0.219224631786346 
483	 0.219412177801132 
484	 0.219835698604584 
485	 0.22018663585186 
486	 0.220377370715141 
487	 0.220686092972755 
488	 0.220894172787666 
489	 0.221137091517448 
490	 0.221524119377136 
491	 0.2217668145895 
492	 0.222030505537987 
493	 0.222350791096687 
494	 0.222673743963242 
495	 0.22296716272831 
496	 0.223280236124992 
497	 0.223557308316231 
498	 0.223528727889061 
499	 0.22383014857769 
500	 0.224247604608536 
501	 0.224430352449417 
502	 0.224684745073318 
503	 0.224877938628197 
504	 0.225068345665932 
505	 0.225440382957458 
506	 0.225546613335609 
507	 0.225603714585304 
508	 0.225796580314636 
509	 0.22600893676281 
510	 0.226303413510323 
511	 0.226557195186615 
512	 0.226639971137047 
513	 0.226765140891075 
514	 0.226889088749886 
515	 0.22699847817421 
516	 0.227125957608223 
517	 0.227288335561752 
518	 0.227394491434097 
519	 0.227414667606354 
520	 0.227540791034698 
521	 0.227616488933563 
522	 0.227624818682671 
523	 0.227630630135536 
524	 0.227769434452057 
525	 0.227846309542656 
526	 0.227835088968277 
527	 0.227963164448738 
528	 0.228042110800743 
529	 0.228015214204788 
530	 0.227919772267342 
531	 0.227991253137589 
532	 0.228001490235329 
533	 0.22791451215744 
534	 0.227827489376068 
535	 0.227809906005859 
536	 0.227785006165504 
537	 0.227700158953667 
538	 0.227574974298477 
539	 0.227450966835022 
540	 0.227370321750641 
541	 0.227338299155235 
542	 0.22722302377224 
543	 0.227035522460938 
544	 0.226877555251122 
545	 0.226894095540047 
546	 0.226757600903511 
547	 0.226587355136871 
548	 0.226480111479759 
549	 0.226313933730125 
550	 0.226105406880379 
551	 0.225871607661247 
552	 0.225640445947647 
553	 0.225470393896103 
554	 0.22534741461277 
555	 0.225232407450676 
556	 0.225069031119347 
557	 0.224902257323265 
558	 0.224725544452667 
559	 0.224510833621025 
560	 0.224185600876808 
561	 0.223927155137062 
562	 0.223729223012924 
563	 0.223492622375488 
564	 0.223215669393539 
565	 0.222970873117447 
566	 0.222774162888527 
567	 0.222555235028267 
568	 0.222332701086998 
569	 0.222088530659676 
570	 0.221832543611526 
571	 0.221700176596642 
572	 0.221609190106392 
573	 0.22146187722683 
574	 0.221180990338326 
575	 0.221005693078041 
576	 0.220782548189163 
577	 0.220438167452812 
578	 0.22014231979847 
579	 0.219817712903023 
580	 0.219502583146095 
581	 0.219236806035042 
582	 0.218911871314049 
583	 0.218552246689796 
584	 0.218236520886421 
585	 0.21807099878788 
586	 0.217963308095932 
587	 0.2178103774786 
588	 0.217551752924919 
589	 0.21722237765789 
590	 0.216766715049744 
591	 0.216306418180466 
592	 0.215988904237747 
593	 0.215699464082718 
594	 0.215374931693077 
595	 0.215045660734177 
596	 0.214829489588737 
597	 0.214602068066597 
598	 0.214314788579941 
599	 0.213991150259972 
600	 0.213805362582207 
601	 0.213632419705391 
602	 0.213408842682838 
603	 0.213129267096519 
604	 0.212975859642029 
605	 0.212863475084305 
606	 0.212692707777023 
607	 0.212382048368454 
608	 0.212141245603561 
609	 0.211951270699501 
610	 0.211740732192993 
611	 0.211457461118698 
612	 0.211284637451172 
613	 0.211169272661209 
614	 0.210946410894394 
615	 0.210843250155449 
616	 0.210799336433411 
617	 0.210723489522934 
618	 0.210525378584862 
619	 0.210457488894463 
620	 0.210440441966057 
621	 0.210346773266792 
622	 0.210257396101952 
623	 0.210198447108269 
624	 0.210190787911415 
625	 0.210241422057152 
626	 0.210263222455978 
627	 0.210295751690865 
628	 0.210360050201416 
629	 0.210410296916962 
630	 0.210520133376122 
631	 0.210642158985138 
632	 0.210720092058182 
633	 0.210825085639954 
634	 0.21098218858242 
635	 0.211169078946114 
636	 0.211330160498619 
637	 0.211469098925591 
638	 0.211632966995239 
639	 0.211835473775864 
640	 0.212015777826309 
641	 0.212218448519707 
642	 0.212359577417374 
643	 0.212368622422218 
644	 0.2124193161726 
645	 0.212495610117912 
646	 0.212579771876335 
647	 0.212662309408188 
648	 0.212795227766037 
649	 0.212998598814011 
650	 0.213258937001228 
651	 0.213512122631073 
652	 0.213784918189049 
653	 0.214083656668663 
654	 0.214391350746155 
655	 0.214615076780319 
656	 0.214809432625771 
657	 0.215048015117645 
658	 0.215395748615265 
659	 0.215684965252876 
660	 0.215985387563705 
661	 0.216341510415077 
662	 0.216674819588661 
663	 0.217108607292175 
664	 0.217561170458794 
665	 0.217918217182159 
666	 0.218235149979591 
667	 0.218566834926605 
668	 0.218954458832741 
669	 0.21941089630127 
670	 0.219801872968674 
671	 0.220154404640198 
672	 0.220503583550453 
673	 0.22085428237915 
674	 0.221209302544594 
675	 0.22157347202301 
676	 0.221911519765854 
677	 0.222042292356491 
678	 0.222122251987457 
679	 0.222246184945107 
680	 0.222432836890221 
681	 0.222480803728104 
682	 0.22248400747776 
683	 0.222522914409637 
684	 0.22260020673275 
685	 0.222710430622101 
686	 0.222939342260361 
687	 0.223309859633446 
688	 0.223575115203857 
689	 0.223930388689041 
690	 0.224292770028114 
691	 0.224479019641876 
692	 0.224743947386742 
693	 0.225038334727287 
694	 0.22535440325737 
695	 0.225762993097305 
696	 0.226141452789307 
697	 0.226543545722961 
698	 0.227005660533905 
699	 0.227404817938805 
700	 0.227941334247589 
701	 0.228505507111549 
702	 0.228903472423553 
703	 0.229238167405128 
704	 0.229604601860046 
705	 0.230032324790955 
706	 0.230483874678612 
707	 0.230871602892876 
708	 0.23125047981739 
709	 0.231648221611977 
710	 0.231994479894638 
711	 0.232311144471169 
712	 0.232641249895096 
713	 0.233012691140175 
714	 0.233373805880547 
715	 0.233708217740059 
716	 0.234031230211258 
717	 0.234365716576576 
718	 0.234612464904785 
719	 0.234904661774635 
720	 0.23525358736515 
721	 0.235493794083595 
722	 0.235770091414452 
723	 0.236066296696663 
724	 0.236341759562492 
725	 0.236583292484283 
726	 0.23681965470314 
727	 0.237066701054573 
728	 0.237331837415695 
729	 0.237632006406784 
730	 0.237778559327126 
731	 0.237851157784462 
732	 0.238111227750778 
733	 0.238304913043976 
734	 0.238493859767914 
735	 0.238707929849625 
736	 0.238867118954659 
737	 0.239008560776711 
738	 0.239140212535858 
739	 0.239291936159134 
740	 0.23959194123745 
741	 0.239785313606262 
742	 0.239852622151375 
743	 0.239908784627914 
744	 0.240133851766586 
745	 0.240347847342491 
746	 0.240513235330582 
747	 0.240715637803078 
748	 0.24074798822403 
749	 0.240845337510109 
750	 0.24108013510704 
751	 0.241186082363129 
752	 0.241315498948097 
753	 0.241496086120605 
754	 0.241687029600143 
755	 0.241730615496635 
756	 0.241868808865547 
757	 0.242028966546059 
758	 0.242062836885452 
759	 0.242153197526932 
760	 0.242334693670273 
761	 0.242500215768814 
762	 0.242489010095596 
763	 0.242632254958153 
764	 0.242808878421783 
765	 0.24291829764843 
766	 0.242968291044235 
767	 0.243046045303345 
768	 0.243096739053726 
769	 0.243110746145248 
770	 0.24326166510582 
771	 0.243328362703323 
772	 0.243376329541206 
773	 0.243502005934715 
774	 0.243527472019196 
775	 0.243580535054207 
776	 0.243664771318436 
777	 0.243714794516563 
778	 0.243725329637527 
779	 0.243780434131622 
780	 0.243897080421448 
781	 0.244016945362091 
782	 0.244063034653664 
783	 0.24403290450573 
784	 0.243994176387787 
785	 0.244086608290672 
786	 0.24415035545826 
787	 0.244217038154602 
788	 0.244298994541168 
789	 0.244246169924736 
790	 0.244210064411163 
791	 0.244258269667625 
792	 0.24437440931797 
793	 0.244363233447075 
794	 0.244283139705658 
795	 0.244307562708855 
796	 0.244565546512604 
797	 0.244617640972137 
798	 0.244614899158478 
799	 0.244621053338051 
800	 0.244597360491753 
801	 0.244560390710831 
802	 0.244575500488281 
803	 0.244665071368217 
804	 0.244787856936455 
805	 0.244812741875648 
806	 0.244883313775063 
807	 0.245049327611923 
808	 0.245101749897003 
809	 0.245166599750519 
810	 0.245203495025635 
811	 0.24518059194088 
812	 0.24519570171833 
813	 0.245219975709915 
814	 0.245257049798965 
815	 0.245309948921204 
816	 0.245343610644341 
817	 0.245410457253456 
818	 0.245468318462372 
819	 0.245459243655205 
820	 0.245501056313515 
821	 0.245562151074409 
822	 0.245636686682701 
823	 0.245726004242897 
824	 0.245707929134369 
825	 0.245741739869118 
826	 0.24581341445446 
827	 0.245751112699509 
828	 0.245763331651688 
829	 0.245884358882904 
830	 0.246004328131676 
831	 0.245899215340614 
832	 0.245853543281555 
833	 0.245920434594154 
834	 0.246008917689323 
835	 0.245889216661453 
836	 0.245973885059357 
837	 0.246104761958122 
838	 0.246106281876564 
839	 0.246059611439705 
840	 0.246009603142738 
841	 0.246009886264801 
842	 0.246065437793732 
843	 0.246053606271744 
844	 0.246148109436035 
845	 0.246231153607368 
846	 0.24618224799633 
847	 0.246214225888252 
848	 0.246182829141617 
849	 0.246135637164116 
850	 0.246163249015808 
851	 0.246193140745163 
852	 0.246265798807144 
853	 0.24631555378437 
854	 0.246273055672646 
855	 0.246302783489227 
856	 0.246299922466278 
857	 0.246240764856339 
858	 0.24617625772953 
859	 0.246234774589539 
860	 0.246309623122215 
861	 0.246341302990913 
862	 0.246330305933952 
863	 0.246352344751358 
864	 0.246357828378677 
865	 0.246322691440582 
866	 0.246265515685081 
867	 0.246297299861908 
868	 0.246280193328857 
869	 0.246213361620903 
870	 0.246224731206894 
871	 0.246371686458588 
872	 0.246441930532455 
873	 0.246353313326836 
874	 0.246196553111076 
875	 0.246176898479462 
876	 0.246288552880287 
877	 0.246399611234665 
878	 0.246336460113525 
879	 0.246344193816185 
880	 0.246354997158051 
881	 0.246349364519119 
882	 0.246380895376205 
883	 0.246387481689453 
884	 0.246347710490227 
885	 0.246313571929932 
886	 0.246368944644928 
887	 0.246272444725037 
888	 0.246201276779175 
889	 0.2462507635355 
890	 0.246356055140495 
891	 0.246309787034988 
892	 0.246242821216583 
893	 0.246217593550682 
894	 0.246194735169411 
895	 0.246259406208992 
896	 0.246326237916946 
897	 0.246349394321442 
898	 0.246343865990639 
899	 0.246329754590988 
900	 0.24627161026001 
901	 0.24620233476162 
902	 0.246202066540718 
903	 0.246235817670822 
904	 0.246211305260658 
905	 0.246170967817307 
906	 0.246219918131828 
907	 0.246131613850594 
908	 0.246078878641129 
909	 0.246109664440155 
910	 0.246150970458984 
911	 0.246137544512749 
912	 0.246107503771782 
913	 0.246072262525558 
914	 0.246029004454613 
915	 0.246009334921837 
916	 0.246037498116493 
917	 0.246056839823723 
918	 0.246014460921288 
919	 0.246052458882332 
920	 0.246040597558022 
921	 0.245988473296165 
922	 0.245935186743736 
923	 0.245768457651138 
924	 0.24571493268013 
925	 0.245735555887222 
926	 0.24573977291584 
927	 0.245798006653786 
928	 0.245803743600845 
929	 0.245763078331947 
930	 0.245733082294464 
931	 0.245790347456932 
932	 0.245771497488022 
933	 0.245710089802742 
934	 0.245670586824417 
935	 0.245672568678856 
936	 0.245611146092415 
937	 0.24558562040329 
938	 0.245620205998421 
939	 0.245605617761612 
940	 0.245567187666893 
941	 0.245524719357491 
942	 0.245469734072685 
943	 0.245381385087967 
944	 0.24533399939537 
945	 0.245341897010803 
946	 0.245337203145027 
947	 0.245239496231079 
948	 0.245149433612823 
949	 0.245062872767448 
950	 0.244945615530014 
951	 0.244781598448753 
952	 0.244655579328537 
953	 0.244551822543144 
954	 0.244446873664856 
955	 0.244319155812263 
956	 0.244161278009415 
957	 0.244081035256386 
958	 0.24404077231884 
959	 0.24396887421608 
960	 0.243816152215004 
961	 0.243606373667717 
962	 0.243486151099205 
963	 0.243495658040047 
964	 0.24354712665081 
965	 0.243607744574547 
966	 0.243658527731895 
967	 0.243667289614677 
968	 0.243616759777069 
969	 0.243559405207634 
970	 0.243699640035629 
971	 0.243875086307526 
972	 0.243880704045296 
973	 0.243830755352974 
974	 0.243792995810509 
975	 0.243853583931923 
976	 0.243971988558769 
977	 0.243947878479958 
978	 0.243903592228889 
979	 0.243953093886375 
980	 0.243984997272491 
981	 0.243780627846718 
982	 0.243706524372101 
983	 0.243578657507896 
984	 0.24349071085453 
985	 0.24355985224247 
986	 0.243394777178764 
987	 0.24331633746624 
988	 0.243366867303848 
989	 0.243445664644241 
990	 0.243392750620842 
991	 0.243357181549072 
992	 0.243279740214348 
993	 0.243188172578812 
994	 0.243192195892334 
995	 0.243136912584305 
996	 0.243106499314308 
997	 0.24307344853878 
998	 0.242995619773865 
999	 0.243026494979858 
1000	 0.242897242307663 
1001	 0.245411276817322 
1002	 0.245324105024338 
1003	 0.245366379618645 
1004	 0.245499983429909 
1005	 0.245511800050735 
1006	 0.245411708950996 
1007	 0.245409116148949 
1008	 0.245365262031555 
1009	 0.245304122567177 
1010	 0.245198637247086 
1011	 0.245166540145874 
1012	 0.245190933346748 
1013	 0.245118021965027 
1014	 0.24500584602356 
1015	 0.244940802454948 
1016	 0.244842723011971 
1017	 0.244732350111008 
1018	 0.244726315140724 
1019	 0.244694903492928 
1020	 0.244618237018585 
1021	 0.244578793644905 
1022	 0.244507983326912 
1023	 0.244386658072472 
1024	 0.244310572743416 
1025	 0.244241014122963 
1026	 0.244139492511749 
1027	 0.244063138961792 
1028	 0.243976816534996 
1029	 0.24384531378746 
1030	 0.243748664855957 
1031	 0.243650868535042 
1032	 0.24354287981987 
1033	 0.243532165884972 
1034	 0.243446946144104 
1035	 0.243400558829308 
1036	 0.243424847722054 
1037	 0.243267327547073 
1038	 0.243081986904144 
1039	 0.242984846234322 
1040	 0.242882460355759 
1041	 0.242827653884888 
1042	 0.242906123399734 
1043	 0.242879211902618 
1044	 0.242855682969093 
1045	 0.242713436484337 
1046	 0.242552295327187 
1047	 0.24246284365654 
1048	 0.242351338267326 
1049	 0.242205053567886 
1050	 0.242055386304855 
1051	 0.241888910531998 
1052	 0.241758853197098 
1053	 0.241734340786934 
1054	 0.241707101464272 
1055	 0.241778746247292 
1056	 0.241729959845543 
1057	 0.241632759571075 
1058	 0.241545453667641 
1059	 0.241483896970749 
1060	 0.241448789834976 
1061	 0.241484999656677 
1062	 0.241456761956215 
1063	 0.241341322660446 
1064	 0.241213843226433 
1065	 0.24109548330307 
1066	 0.241071209311485 
1067	 0.24103769659996 
1068	 0.240936741232872 
1069	 0.240865439176559 
1070	 0.240815192461014 
1071	 0.240683019161224 
1072	 0.240490347146988 
1073	 0.240391373634338 
1074	 0.240249708294868 
1075	 0.240091428160667 
1076	 0.240055158734322 
1077	 0.24001744389534 
1078	 0.239879325032234 
1079	 0.239762052893639 
1080	 0.239646315574646 
1081	 0.239466592669487 
1082	 0.23936028778553 
1083	 0.239321649074554 
1084	 0.239272072911263 
1085	 0.239222496747971 
1086	 0.239162057638168 
1087	 0.239133730530739 
1088	 0.238999396562576 
1089	 0.238830149173737 
1090	 0.238746583461761 
1091	 0.238577097654343 
1092	 0.238448977470398 
1093	 0.238359153270721 
1094	 0.23814395070076 
1095	 0.237988278269768 
1096	 0.237876012921333 
1097	 0.237721621990204 
1098	 0.237674668431282 
1099	 0.237645789980888 
1100	 0.237519845366478 
1101	 0.237402722239494 
1102	 0.237283244729042 
1103	 0.237130954861641 
1104	 0.237003028392792 
1105	 0.236921474337578 
1106	 0.23688243329525 
1107	 0.236856341362 
1108	 0.236740201711655 
1109	 0.23663917183876 
1110	 0.236524656414986 
1111	 0.236360713839531 
1112	 0.236264005303383 
1113	 0.236228331923485 
1114	 0.236183047294617 
1115	 0.236135229468346 
1116	 0.236087203025818 
1117	 0.236006557941437 
1118	 0.235878273844719 
1119	 0.235759422183037 
1120	 0.235681772232056 
1121	 0.235586658120155 
1122	 0.235468477010727 
1123	 0.235419929027557 
1124	 0.235405832529068 
1125	 0.235356375575066 
1126	 0.235371708869934 
1127	 0.235345602035522 
1128	 0.235215023159981 
1129	 0.235139727592468 
1130	 0.235134944319725 
1131	 0.235109508037567 
1132	 0.235071465373039 
1133	 0.235041573643684 
1134	 0.234975606203079 
1135	 0.234842926263809 
1136	 0.234716713428497 
1137	 0.234683245420456 
1138	 0.234639227390289 
1139	 0.234633401036263 
1140	 0.234668046236038 
1141	 0.234584048390388 
1142	 0.234532535076141 
1143	 0.234486132860184 
1144	 0.234359800815582 
1145	 0.234304293990135 
1146	 0.23423707485199 
1147	 0.234151035547256 
1148	 0.234111934900284 
1149	 0.234069064259529 
1150	 0.234070226550102 
1151	 0.234002187848091 
1152	 0.233907118439674 
1153	 0.233812242746353 
1154	 0.233656406402588 
1155	 0.23351363837719 
1156	 0.233471944928169 
1157	 0.233400404453278 
1158	 0.233305990695953 
1159	 0.233260914683342 
1160	 0.233164891600609 
1161	 0.23304571211338 
1162	 0.233010903000832 
1163	 0.232942193746567 
1164	 0.23280742764473 
1165	 0.23271019756794 
1166	 0.232605382800102 
1167	 0.232453346252441 
1168	 0.232366517186165 
1169	 0.232338890433311 
1170	 0.23225736618042 
1171	 0.232170656323433 
1172	 0.232063248753548 
1173	 0.231900900602341 
1174	 0.231777563691139 
1175	 0.231698989868164 
1176	 0.231596454977989 
1177	 0.231504574418068 
1178	 0.231441125273705 
1179	 0.231335803866386 
1180	 0.231232643127441 
1181	 0.231157794594765 
1182	 0.231043800711632 
1183	 0.230936199426651 
1184	 0.230837315320969 
1185	 0.230728462338448 
1186	 0.230588123202324 
1187	 0.230487644672394 
1188	 0.230397507548332 
1189	 0.230305403470993 
1190	 0.230270773172379 
1191	 0.230219379067421 
1192	 0.230123147368431 
1193	 0.230011373758316 
1194	 0.229859724640846 
1195	 0.22972084581852 
1196	 0.22959977388382 
1197	 0.229504480957985 
1198	 0.229464396834373 
1199	 0.229436054825783 
1200	 0.229420587420464 
1201	 0.22937972843647 
1202	 0.229299545288086 
1203	 0.229157090187073 
1204	 0.229049056768417 
1205	 0.228909075260162 
1206	 0.228807404637337 
1207	 0.228733107447624 
1208	 0.228657737374306 
1209	 0.228582784533501 
1210	 0.22855806350708 
1211	 0.228485688567162 
1212	 0.228366106748581 
1213	 0.22829969227314 
1214	 0.228179916739464 
1215	 0.228059515357018 
1216	 0.228025108575821 
1217	 0.227926358580589 
1218	 0.227835834026337 
1219	 0.227756783366203 
1220	 0.227676570415497 
1221	 0.227598860859871 
1222	 0.227543354034424 
1223	 0.227465748786926 
1224	 0.22737792134285 
1225	 0.227302357554436 
1226	 0.227221772074699 
1227	 0.227148994803429 
1228	 0.227058291435242 
1229	 0.22699262201786 
1230	 0.226958513259888 
1231	 0.226899921894073 
1232	 0.22681300342083 
1233	 0.226722687482834 
1234	 0.226607888936996 
1235	 0.226450547575951 
1236	 0.22634981572628 
1237	 0.226303413510323 
1238	 0.226221337914467 
1239	 0.226134389638901 
1240	 0.226052850484848 
1241	 0.225962430238724 
1242	 0.225875616073608 
1243	 0.225788787007332 
1244	 0.225723013281822 
1245	 0.225682631134987 
1246	 0.225604012608528 
1247	 0.225514844059944 
1248	 0.225437372922897 
1249	 0.225360244512558 
1250	 0.225260093808174 
1251	 0.225160866975784 
1252	 0.225096806883812 
1253	 0.225036263465881 
1254	 0.224975898861885 
1255	 0.224967926740646 
1256	 0.224953055381775 
1257	 0.224885419011116 
1258	 0.224841311573982 
1259	 0.224787563085556 
1260	 0.22471496462822 
1261	 0.224657371640205 
1262	 0.224619373679161 
1263	 0.224560275673866 
1264	 0.224496111273766 
1265	 0.224443390965462 
1266	 0.224379479885101 
1267	 0.224307850003242 
1268	 0.224269479513168 
1269	 0.224183157086372 
1270	 0.224050745368004 
1271	 0.22393274307251 
1272	 0.223828971385956 
1273	 0.223742589354515 
1274	 0.223697647452354 
1275	 0.223647117614746 
1276	 0.223564952611923 
1277	 0.223447173833847 
1278	 0.22329817712307 
1279	 0.223190903663635 
1280	 0.223112121224403 
1281	 0.223078086972237 
1282	 0.222996056079865 
1283	 0.22291199862957 
1284	 0.222833454608917 
1285	 0.222728446125984 
1286	 0.222641870379448 
1287	 0.222603350877762 
1288	 0.222520887851715 
1289	 0.22237965464592 
1290	 0.222298711538315 
1291	 0.222239300608635 
1292	 0.222169741988182 
1293	 0.222144722938538 
1294	 0.222081184387207 
1295	 0.221972361207008 
1296	 0.22189225256443 
1297	 0.22179751098156 
1298	 0.221702247858047 
1299	 0.221648409962654 
1300	 0.221583262085915 
1301	 0.221500039100647 
1302	 0.2214215695858 
1303	 0.221330597996712 
1304	 0.221200570464134 
1305	 0.221100077033043 
1306	 0.22102764248848 
1307	 0.22092093527317 
1308	 0.22079835832119 
1309	 0.220678821206093 
1310	 0.220535457134247 
1311	 0.220412507653236 
1312	 0.220298811793327 
1313	 0.220195636153221 
1314	 0.220130249857903 
1315	 0.220021918416023 
1316	 0.219906121492386 
1317	 0.219764694571495 
1318	 0.21961984038353 
1319	 0.21946656703949 
1320	 0.219331234693527 
1321	 0.219201996922493 
1322	 0.219010904431343 
1323	 0.218859538435936 
1324	 0.218775257468224 
1325	 0.218651220202446 
1326	 0.218532904982567 
1327	 0.218440905213356 
1328	 0.21833348274231 
1329	 0.218182519078255 
1330	 0.218099296092987 
1331	 0.218070343136787 
1332	 0.218006744980812 
1333	 0.217945888638496 
1334	 0.217893540859222 
1335	 0.217818036675453 
1336	 0.217775881290436 
1337	 0.217779844999313 
1338	 0.217755943536758 
1339	 0.217734396457672 
1340	 0.217713192105293 
1341	 0.217693194746971 
1342	 0.217640206217766 
1343	 0.217622101306915 
1344	 0.21758072078228 
1345	 0.217521712183952 
1346	 0.217498645186424 
1347	 0.217495784163475 
1348	 0.217488214373589 
1349	 0.217462629079819 
1350	 0.217439875006676 
1351	 0.217412307858467 
1352	 0.217350125312805 
1353	 0.217328980565071 
1354	 0.217350006103516 
1355	 0.217311799526215 
1356	 0.217266425490379 
1357	 0.217195868492126 
1358	 0.217076733708382 
1359	 0.216992437839508 
1360	 0.216918125748634 
1361	 0.216827154159546 
1362	 0.216744258999825 
1363	 0.216647416353226 
1364	 0.216508418321609 
1365	 0.216408520936966 
1366	 0.216357827186584 
1367	 0.216251894831657 
1368	 0.216109648346901 
1369	 0.216019287705421 
1370	 0.215924620628357 
1371	 0.215773522853851 
1372	 0.215647384524345 
1373	 0.215524643659592 
1374	 0.215361967682838 
1375	 0.215180277824402 
1376	 0.215000733733177 
1377	 0.214827910065651 
1378	 0.214668542146683 
1379	 0.214476212859154 
1380	 0.2142553627491 
1381	 0.214052200317383 
1382	 0.213760778307915 
1383	 0.213422328233719 
1384	 0.213026881217957 
1385	 0.212623789906502 
1386	 0.212071597576141 
1387	 0.211479648947716 
1388	 0.210701361298561 
1389	 0.20982638001442 
1390	 0.208748251199722 
1391	 0.207517102360725 
1392	 0.206108793616295 
1393	 0.204467266798019 
1394	 0.20276340842247 
1395	 0.200843542814255 
1396	 0.198954179883003 
1397	 0.196917742490768 
1398	 0.195000037550926 
1399	 0.193079084157944 
1400	 0.191235154867172 
1401	 0.189512595534325 
1402	 0.187919721007347 
1403	 0.186490297317505 
1404	 0.185214340686798 
1405	 0.184056028723717 
1406	 0.183018982410431 
1407	 0.182126864790916 
1408	 0.181364133954048 
1409	 0.180757969617844 
1410	 0.180342495441437 
1411	 0.180173799395561 
1412	 0.180142313241959 
1413	 0.180478364229202 
1414	 0.181086927652359 
1415	 0.181987717747688 
1416	 0.18327721953392 
1417	 0.184611484408379 
1418	 0.18627442419529 
1419	 0.187823891639709 
1420	 0.189505770802498 
1421	 0.191052973270416 
1422	 0.192654892802238 
1423	 0.194049522280693 
1424	 0.195369273424149 
1425	 0.196506828069687 
1426	 0.197465717792511 
1427	 0.198321506381035 
1428	 0.198994293808937 
1429	 0.199638158082962 
1430	 0.200182616710663 
1431	 0.200671583414078 
1432	 0.20109461247921 
1433	 0.201460346579552 
1434	 0.201745703816414 
1435	 0.201980009675026 
1436	 0.202194109559059 
1437	 0.202405616641045 
1438	 0.202578216791153 
1439	 0.202686473727226 
1440	 0.202771693468094 
1441	 0.202847093343735 
1442	 0.202906548976898 
1443	 0.202979236841202 
1444	 0.203030332922935 
1445	 0.203019350767136 
1446	 0.203020885586739 
1447	 0.203000158071518 
1448	 0.20298832654953 
1449	 0.202976286411285 
1450	 0.202957063913345 
1451	 0.202930584549904 
1452	 0.202900692820549 
1453	 0.202863246202469 
1454	 0.202839195728302 
1455	 0.202820986509323 
1456	 0.202791601419449 
1457	 0.202758491039276 
1458	 0.202726781368256 
1459	 0.202684566378593 
1460	 0.202655121684074 
1461	 0.202638730406761 
1462	 0.202622592449188 
1463	 0.202615261077881 
1464	 0.202590256929398 
1465	 0.202552482485771 
1466	 0.202534690499306 
1467	 0.202501177787781 
1468	 0.202490702271461 
1469	 0.202533721923828 
1470	 0.202531769871712 
1471	 0.202499061822891 
1472	 0.20249579846859 
1473	 0.202482253313065 
1474	 0.202473968267441 
1475	 0.202480763196945 
1476	 0.2025096565485 
1477	 0.202500432729721 
1478	 0.202496662735939 
1479	 0.202499017119408 
1480	 0.202504485845566 
1481	 0.202550083398819 
1482	 0.202599406242371 
1483	 0.202634394168854 
1484	 0.202621892094612 
1485	 0.202559262514114 
1486	 0.202537283301353 
1487	 0.202542796730995 
1488	 0.202560797333717 
1489	 0.202600911259651 
1490	 0.202586427330971 
1491	 0.202566757798195 
1492	 0.202598229050636 
1493	 0.20259964466095 
1494	 0.202614054083824 
1495	 0.202608436346054 
1496	 0.202568411827087 
1497	 0.202557161450386 
1498	 0.202553659677505 
1499	 0.202559590339661 
1500	 0.20258717238903 
1501	 0.202592983841896 
1502	 0.202585533261299 
1503	 0.20260152220726 
1504	 0.202636703848839 
1505	 0.202630400657654 
1506	 0.202614009380341 
1507	 0.202615648508072 
1508	 0.202588215470314 
1509	 0.20256695151329 
1510	 0.202583640813828 
1511	 0.202571555972099 
1512	 0.202510342001915 
1513	 0.202504277229309 
1514	 0.202533379197121 
1515	 0.202536717057228 
1516	 0.202564418315887 
1517	 0.202557012438774 
1518	 0.202505216002464 
1519	 0.202483922243118 
1520	 0.202467948198318 
1521	 0.202445670962334 
1522	 0.202438712120056 
1523	 0.202420517802238 
1524	 0.202375784516335 
1525	 0.202347606420517 
1526	 0.202333718538284 
1527	 0.202312737703323 
1528	 0.2022934705019 
1529	 0.202274903655052 
1530	 0.202260360121727 
1531	 0.202229678630829 
1532	 0.202190682291985 
1533	 0.202192112803459 
1534	 0.202196806669235 
1535	 0.202178105711937 
1536	 0.202179715037346 
1537	 0.202144116163254 
1538	 0.202096790075302 
1539	 0.202102303504944 
1540	 0.202077850699425 
1541	 0.202044576406479 
1542	 0.202027320861816 
1543	 0.201941132545471 
1544	 0.20187608897686 
1545	 0.20187783241272 
1546	 0.201858997344971 
1547	 0.201850757002831 
1548	 0.201822862029076 
1549	 0.201751053333282 
1550	 0.201702445745468 
1551	 0.201677709817886 
1552	 0.201650127768517 
1553	 0.201606377959251 
1554	 0.201564431190491 
1555	 0.201510563492775 
1556	 0.201470151543617 
1557	 0.201468050479889 
1558	 0.201451480388641 
1559	 0.201414614915848 
1560	 0.20137070119381 
1561	 0.201336771249771 
1562	 0.201295301318169 
1563	 0.201235383749008 
1564	 0.201204314827919 
1565	 0.2011838555336 
1566	 0.201134279370308 
1567	 0.201093167066574 
1568	 0.2010458111763 
1569	 0.200974360108376 
1570	 0.20091600716114 
1571	 0.200871869921684 
1572	 0.200824454426765 
1573	 0.200765743851662 
1574	 0.20071579515934 
1575	 0.20068271458149 
1576	 0.200636073946953 
1577	 0.200580954551697 
1578	 0.200538992881775 
1579	 0.200487464666367 
1580	 0.200454711914063 
1581	 0.200448840856552 
1582	 0.200425073504448 
1583	 0.200413048267365 
1584	 0.200363636016846 
1585	 0.200283467769623 
1586	 0.200229108333588 
1587	 0.200164601206779 
1588	 0.200106650590897 
1589	 0.200056672096252 
1590	 0.200007021427155 
1591	 0.199959084391594 
1592	 0.199914664030075 
1593	 0.199879035353661 
1594	 0.199846431612968 
1595	 0.199811965227127 
1596	 0.199768930673599 
1597	 0.199737578630447 
1598	 0.199690923094749 
1599	 0.199614569544792 
1600	 0.199566587805748 
1601	 0.199541315436363 
1602	 0.199493750929832 
1603	 0.199459835886955 
1604	 0.19939512014389 
1605	 0.199272587895393 
1606	 0.19920925796032 
1607	 0.19916495680809 
1608	 0.199114546179771 
1609	 0.199104025959969 
1610	 0.199066862463951 
1611	 0.199005901813507 
1612	 0.198942303657532 
1613	 0.198865666985512 
1614	 0.198816910386086 
1615	 0.198772221803665 
1616	 0.198735982179642 
1617	 0.198740735650063 
1618	 0.198689579963684 
1619	 0.198596253991127 
1620	 0.198534652590752 
1621	 0.198457598686218 
1622	 0.198414340615273 
1623	 0.198421344161034 
1624	 0.198383152484894 
1625	 0.198325872421265 
1626	 0.198275968432426 
1627	 0.198203802108765 
1628	 0.198161616921425 
1629	 0.198154151439667 
1630	 0.198105454444885 
1631	 0.19804784655571 
1632	 0.197982043027878 
1633	 0.197882667183876 
1634	 0.197826519608498 
1635	 0.197787463665009 
1636	 0.197752743959427 
1637	 0.197745636105537 
1638	 0.197685867547989 
1639	 0.197611823678017 
1640	 0.197544813156128 
1641	 0.197439610958099 
1642	 0.197392523288727 
1643	 0.197380274534225 
1644	 0.197328314185143 
1645	 0.197283163666725 
1646	 0.197231814265251 
1647	 0.197164818644524 
1648	 0.19711934030056 
1649	 0.197088748216629 
1650	 0.197029232978821 
1651	 0.196955278515816 
1652	 0.196893915534019 
1653	 0.196822911500931 
1654	 0.196769401431084 
1655	 0.196736365556717 
1656	 0.196683868765831 
1657	 0.196617022156715 
1658	 0.196565896272659 
1659	 0.196534484624863 
1660	 0.196478202939034 
1661	 0.196411535143852 
1662	 0.196344271302223 
1663	 0.196254849433899 
1664	 0.196203902363777 
1665	 0.19616687297821 
1666	 0.196160316467285 
1667	 0.196120172739029 
1668	 0.196002244949341 
1669	 0.195946708321571 
1670	 0.195884212851524 
1671	 0.19580003619194 
1672	 0.195794776082039 
1673	 0.195780947804451 
1674	 0.195740938186646 
1675	 0.195666283369064 
1676	 0.19557249546051 
1677	 0.195519670844078 
1678	 0.195464074611664 
1679	 0.195420622825623 
1680	 0.195388898253441 
1681	 0.195363104343414 
1682	 0.195323631167412 
1683	 0.195301920175552 
1684	 0.195313856005669 
1685	 0.19523398578167 
1686	 0.19514337182045 
1687	 0.195088297128677 
1688	 0.194968089461327 
1689	 0.194890588521957 
1690	 0.194866433739662 
1691	 0.194808840751648 
1692	 0.194784298539162 
1693	 0.194781169295311 
1694	 0.194737806916237 
1695	 0.194659501314163 
1696	 0.194569692015648 
1697	 0.194460168480873 
1698	 0.194340690970421 
1699	 0.194294556975365 
1700	 0.194260910153389 
1701	 0.194179758429527 
1702	 0.194112688302994 
1703	 0.194052055478096 
1704	 0.194041714072227 
1705	 0.194050207734108 
1706	 0.193988651037216 
1707	 0.193906784057617 
1708	 0.193804502487183 
1709	 0.193703830242157 
1710	 0.193654537200928 
1711	 0.19361686706543 
1712	 0.193545922636986 
1713	 0.193454012274742 
1714	 0.193405136466026 
1715	 0.193375125527382 
1716	 0.193336889147758 
1717	 0.193291530013084 
1718	 0.19324104487896 
1719	 0.193206876516342 
1720	 0.193127244710922 
1721	 0.193035453557968 
1722	 0.192951887845993 
1723	 0.192850738763809 
1724	 0.192782923579216 
1725	 0.192738875746727 
1726	 0.192665249109268 
1727	 0.192596644163132 
1728	 0.192569181323051 
1729	 0.192505866289139 
1730	 0.192397847771645 
1731	 0.192339196801186 
1732	 0.19227422773838 
1733	 0.19220107793808 
1734	 0.192186757922173 
1735	 0.19214004278183 
1736	 0.192040860652924 
1737	 0.191961959004402 
1738	 0.191887080669403 
1739	 0.191787153482437 
1740	 0.191728547215462 
1741	 0.191641703248024 
1742	 0.191542699933052 
1743	 0.191474467515945 
1744	 0.191408216953278 
1745	 0.191329136490822 
1746	 0.191271126270294 
1747	 0.191195443272591 
1748	 0.19109782576561 
1749	 0.191054210066795 
1750	 0.190972670912743 
1751	 0.190881714224815 
1752	 0.19085630774498 
1753	 0.190793409943581 
1754	 0.190718293190002 
1755	 0.190663650631905 
1756	 0.1905188113451 
1757	 0.190385088324547 
1758	 0.190312936902046 
1759	 0.19020713865757 
1760	 0.190141096711159 
1761	 0.19006310403347 
1762	 0.189939931035042 
1763	 0.189865171909332 
1764	 0.189775958657265 
1765	 0.18968740105629 
1766	 0.189632505178452 
1767	 0.189542502164841 
1768	 0.189478069543839 
1769	 0.189438045024872 
1770	 0.189374148845673 
1771	 0.189343154430389 
1772	 0.189301416277885 
1773	 0.189232990145683 
1774	 0.18917915225029 
1775	 0.189073264598846 
1776	 0.188974484801292 
1777	 0.188934907317162 
1778	 0.188884139060974 
1779	 0.188854604959488 
1780	 0.188790649175644 
1781	 0.188717380166054 
1782	 0.188706368207932 
1783	 0.188680678606033 
1784	 0.188621640205383 
1785	 0.188575834035873 
1786	 0.188518717885017 
1787	 0.188431635499001 
1788	 0.188357502222061 
1789	 0.188295066356659 
1790	 0.188191056251526 
1791	 0.188131004571915 
1792	 0.188068121671677 
1793	 0.187994658946991 
1794	 0.188008427619934 
1795	 0.187991291284561 
1796	 0.187965914607048 
1797	 0.187957972288132 
1798	 0.187885910272598 
1799	 0.187806040048599 
1800	 0.187724471092224 
1801	 0.187655970454216 
1802	 0.187601655721664 
1803	 0.187516823410988 
1804	 0.187454044818878 
1805	 0.187428876757622 
1806	 0.187386035919189 
1807	 0.187333628535271 
1808	 0.187302276492119 
1809	 0.187262311577797 
1810	 0.187212020158768 
1811	 0.187243282794952 
1812	 0.187222942709923 
1813	 0.187151029706001 
1814	 0.187132269144058 
1815	 0.187086775898933 
1816	 0.187056079506874 
1817	 0.187032446265221 
1818	 0.186966866254807 
1819	 0.186849519610405 
1820	 0.186754703521729 
1821	 0.18670254945755 
1822	 0.186621740460396 
1823	 0.186571598052979 
1824	 0.186526134610176 
1825	 0.186433017253876 
1826	 0.186384126543999 
1827	 0.186395287513733 
1828	 0.186385229229927 
1829	 0.186403274536133 
1830	 0.186424538493156 
1831	 0.188529163599014 
1832	 0.188503965735435 
1833	 0.188460618257523 
1834	 0.188496589660645 
1835	 0.188466429710388 
1836	 0.188363149762154 
1837	 0.188310876488686 
1838	 0.188280463218689 
1839	 0.18825064599514 
1840	 0.188183531165123 
1841	 0.188140854239464 
1842	 0.188086003065109 
1843	 0.188004523515701 
1844	 0.187948450446129 
1845	 0.187924742698669 
1846	 0.187871843576431 
1847	 0.187840759754181 
1848	 0.187731638550758 
1849	 0.187581911683083 
1850	 0.18748950958252 
1851	 0.187369123101234 
1852	 0.187301769852638 
1853	 0.187279477715492 
1854	 0.187230348587036 
1855	 0.187144815921783 
1856	 0.187009483575821 
1857	 0.186880275607109 
1858	 0.186725780367851 
1859	 0.186597615480423 
1860	 0.186465248465538 
1861	 0.186342433094978 
1862	 0.186152413487434 
1863	 0.185949578881264 
1864	 0.185792207717896 
1865	 0.185667112469673 
1866	 0.185481518507004 
1867	 0.185329914093018 
1868	 0.185088083148003 
1869	 0.184795349836349 
1870	 0.184491991996765 
1871	 0.184250056743622 
1872	 0.184039160609245 
1873	 0.183799564838409 
1874	 0.183555200695992 
1875	 0.183213502168655 
1876	 0.182823047041893 
1877	 0.182443365454674 
1878	 0.182042062282562 
1879	 0.181584149599075 
1880	 0.181130811572075 
1881	 0.180693954229355 
1882	 0.180204138159752 
1883	 0.179640933871269 
1884	 0.179063737392426 
1885	 0.178459912538528 
1886	 0.177845686674118 
1887	 0.177256301045418 
1888	 0.176606401801109 
1889	 0.175935536623001 
1890	 0.175240695476532 
1891	 0.174501106142998 
1892	 0.1736990660429 
1893	 0.172995835542679 
1894	 0.172339633107185 
1895	 0.171599671244621 
1896	 0.17088508605957 
1897	 0.17020471394062 
1898	 0.169500783085823 
1899	 0.168828099966049 
1900	 0.168190494179726 
1901	 0.167617753148079 
1902	 0.167078122496605 
1903	 0.166586652398109 
1904	 0.166132405400276 
1905	 0.165654093027115 
1906	 0.165193989872932 
1907	 0.164742574095726 
1908	 0.164271950721741 
1909	 0.163874790072441 
1910	 0.163510516285896 
1911	 0.163172781467438 
1912	 0.16278076171875 
1913	 0.162472993135452 
1914	 0.162268087267876 
1915	 0.162002354860306 
1916	 0.161721915006638 
1917	 0.161477401852608 
1918	 0.161250934004784 
1919	 0.161034673452377 
1920	 0.160798296332359 
1921	 0.160578712821007 
1922	 0.160419449210167 
1923	 0.160262435674667 
1924	 0.160123243927956 
1925	 0.160029768943787 
1926	 0.160003572702408 
1927	 0.159894317388535 
1928	 0.159775391221046 
1929	 0.159780368208885 
1930	 0.159709334373474 
1931	 0.159586235880852 
1932	 0.159499034285545 
1933	 0.159441813826561 
1934	 0.15936267375946 
1935	 0.159348770976067 
1936	 0.159351631999016 
1937	 0.159288957715034 
1938	 0.159210756421089 
1939	 0.159166008234024 
1940	 0.159195631742477 
1941	 0.159295246005058 
1942	 0.159374073147774 
1943	 0.15941458940506 
1944	 0.159461721777916 
1945	 0.15947313606739 
1946	 0.159546256065369 
1947	 0.1596569865942 
1948	 0.159747824072838 
1949	 0.15983210504055 
1950	 0.159929573535919 
1951	 0.159998998045921 
1952	 0.160048052668571 
1953	 0.160133793950081 
1954	 0.160235568881035 
1955	 0.160295099020004 
1956	 0.160374745726585 
1957	 0.16051310300827 
1958	 0.160735547542572 
1959	 0.160870864987373 
1960	 0.160986199975014 
1961	 0.161170676350594 
1962	 0.16128097474575 
1963	 0.161368355154991 
1964	 0.161557108163834 
1965	 0.161735504865646 
1966	 0.161894947290421 
1967	 0.162020280957222 
1968	 0.162135362625122 
1969	 0.162211015820503 
1970	 0.162327274680138 
1971	 0.16243340075016 
1972	 0.162587136030197 
1973	 0.162821367383003 
1974	 0.162943556904793 
1975	 0.163057953119278 
1976	 0.163225054740906 
1977	 0.163341328501701 
1978	 0.163466036319733 
1979	 0.163657456636429 
1980	 0.163817271590233 
1981	 0.163992807269096 
1982	 0.164200112223625 
1983	 0.164369985461235 
1984	 0.164537981152534 
1985	 0.164674147963524 
1986	 0.164747804403305 
1987	 0.164870455861092 
1988	 0.165011063218117 
1989	 0.165202915668488 
1990	 0.165445625782013 
1991	 0.165616080164909 
1992	 0.165732368826866 
1993	 0.165872812271118 
1994	 0.166013017296791 
1995	 0.166152819991112 
1996	 0.166259333491325 
1997	 0.166328579187393 
1998	 0.166452407836914 
1999	 0.166579365730286 
2000	 0.166699543595314 
2001	 0.166810020804405 
2002	 0.16700080037117 
2003	 0.167174488306046 
2004	 0.167299449443817 
2005	 0.167488113045692 
2006	 0.167626559734344 
2007	 0.167753472924232 
2008	 0.167801052331924 
2009	 0.16794116795063 
2010	 0.168160274624825 
2011	 0.168278813362122 
2012	 0.168386951088905 
2013	 0.16845129430294 
2014	 0.168430402874947 
2015	 0.168545305728912 
2016	 0.168764099478722 
2017	 0.168925523757935 
2018	 0.169067606329918 
2019	 0.169201165437698 
2020	 0.169346883893013 
2021	 0.169465452432632 
2022	 0.169577404856682 
2023	 0.169718697667122 
2024	 0.169838041067123 
2025	 0.169887319207191 
2026	 0.169986799359322 
2027	 0.170140072703362 
2028	 0.170258954167366 
2029	 0.17035947740078 
2030	 0.170466750860214 
2031	 0.170481130480766 
2032	 0.170534387230873 
2033	 0.170676976442337 
2034	 0.17076675593853 
2035	 0.170855507254601 
2036	 0.17100727558136 
2037	 0.171084970235825 
2038	 0.171044185757637 
2039	 0.171121150255203 
2040	 0.171265035867691 
2041	 0.171372354030609 
2042	 0.171521082520485 
2043	 0.17163273692131 
2044	 0.171671375632286 
2045	 0.171725943684578 
2046	 0.171831101179123 
2047	 0.171893537044525 
2048	 0.171966642141342 
2049	 0.172074243426323 
2050	 0.172139197587967 
2051	 0.172159910202026 
2052	 0.172217980027199 
2053	 0.172288477420807 
2054	 0.172341868281364 
2055	 0.172373354434967 
2056	 0.172443866729736 
2057	 0.17256686091423 
2058	 0.172609969973564 
2059	 0.172623813152313 
2060	 0.172706827521324 
2061	 0.172680467367172 
2062	 0.172683015465736 
2063	 0.172835826873779 
2064	 0.172875687479973 
2065	 0.172887876629829 
2066	 0.172869026660919 
2067	 0.17290461063385 
2068	 0.172888338565826 
2069	 0.172907158732414 
2070	 0.173010498285294 
2071	 0.173056840896606 
2072	 0.173058182001114 
2073	 0.173082053661346 
2074	 0.173087239265442 
2075	 0.173064216971397 
2076	 0.17298935353756 
2077	 0.172943577170372 
2078	 0.172984272241592 
2079	 0.173030078411102 
2080	 0.1730135679245 
2081	 0.172994628548622 
2082	 0.172959342598915 
2083	 0.172833010554314 
2084	 0.172776490449905 
2085	 0.172771751880646 
2086	 0.172740831971169 
2087	 0.172689273953438 
2088	 0.172686398029327 
2089	 0.172733530402184 
2090	 0.172751039266586 
2091	 0.172684028744698 
2092	 0.172610461711884 
2093	 0.172485023736954 
2094	 0.172296166419983 
2095	 0.172262638807297 
2096	 0.172159969806671 
2097	 0.172027513384819 
2098	 0.171844616532326 
2099	 0.171754643321037 
2100	 0.171660244464874 
2101	 0.171586811542511 
2102	 0.171590745449066 
2103	 0.171538144350052 
2104	 0.171473026275635 
2105	 0.171394109725952 
2106	 0.171300172805786 
2107	 0.171196028590202 
2108	 0.171144798398018 
2109	 0.171049863100052 
2110	 0.170986816287041 
2111	 0.170962944626808 
2112	 0.170941159129143 
2113	 0.170949459075928 
2114	 0.170924320816994 
2115	 0.170917078852654 
2116	 0.170913740992546 
2117	 0.170880436897278 
2118	 0.170851692557335 
2119	 0.170807898044586 
2120	 0.170832812786102 
2121	 0.170893713831902 
2122	 0.170928984880447 
2123	 0.17102912068367 
2124	 0.171119675040245 
2125	 0.171179637312889 
2126	 0.17124842107296 
2127	 0.171305507421494 
2128	 0.171225592494011 
2129	 0.171165600419044 
2130	 0.171102032065392 
2131	 0.17107068002224 
2132	 0.171079248189926 
2133	 0.171047061681747 
2134	 0.17098505795002 
2135	 0.170937478542328 
2136	 0.170923963189125 
2137	 0.170846089720726 
2138	 0.170684218406677 
2139	 0.170583784580231 
2140	 0.170486271381378 
2141	 0.170385286211967 
2142	 0.170420989394188 
2143	 0.170302391052246 
2144	 0.170090541243553 
2145	 0.169776767492294 
2146	 0.169520452618599 
2147	 0.169344767928123 
2148	 0.169277876615524 
2149	 0.169173136353493 
2150	 0.168963089585304 
2151	 0.16867396235466 
2152	 0.168397381901741 
2153	 0.168056890368462 
2154	 0.167767360806465 
2155	 0.167533591389656 
2156	 0.167199149727821 
2157	 0.166807651519775 
2158	 0.166400507092476 
2159	 0.165947675704956 
2160	 0.16549026966095 
2161	 0.165042474865913 
2162	 0.164558440446854 
2163	 0.16406361758709 
2164	 0.163469061255455 
2165	 0.162928879261017 
2166	 0.162319555878639 
2167	 0.161571651697159 
2168	 0.160778611898422 
2169	 0.15993595123291 
2170	 0.159029498696327 
2171	 0.158214837312698 
2172	 0.157465621829033 
2173	 0.156520247459412 
2174	 0.155473798513412 
2175	 0.154405504465103 
2176	 0.153200551867485 
2177	 0.1520005017519 
2178	 0.150835290551186 
2179	 0.14955447614193 
2180	 0.148130685091019 
2181	 0.146761387586594 
2182	 0.145370528101921 
2183	 0.1439438611269 
2184	 0.142478182911873 
2185	 0.141059294342995 
2186	 0.139646381139755 
2187	 0.138127788901329 
2188	 0.136763155460358 
2189	 0.135600030422211 
2190	 0.134386003017426 
2191	 0.133195415139198 
2192	 0.132147043943405 
2193	 0.131150126457214 
2194	 0.130283042788506 
2195	 0.129778459668159 
2196	 0.129327610135078 
2197	 0.129023462533951 
2198	 0.128799974918365 
2199	 0.128727525472641 
2200	 0.128781959414482 
2201	 0.12897028028965 
2202	 0.12926609814167 
2203	 0.129687741398811 
2204	 0.130190208554268 
2205	 0.130761086940765 
2206	 0.131547078490257 
2207	 0.132690146565437 
2208	 0.13359646499157 
2209	 0.134455665946007 
2210	 0.135419577360153 
2211	 0.136325627565384 
2212	 0.137254372239113 
2213	 0.138332918286324 
2214	 0.139335826039314 
2215	 0.140350267291069 
2216	 0.141427889466286 
2217	 0.142460033297539 
2218	 0.143411591649055 
2219	 0.144193530082703 
2220	 0.144947752356529 
2221	 0.145700663328171 
2222	 0.146566331386566 
2223	 0.147304132580757 
2224	 0.147988095879555 
2225	 0.14858116209507 
2226	 0.149080142378807 
2227	 0.14958293735981 
2228	 0.150056093931198 
2229	 0.150518462061882 
2230	 0.150962799787521 
2231	 0.151342689990997 
2232	 0.151645854115486 
2233	 0.151982054114342 
2234	 0.152278527617455 
2235	 0.152589306235313 
2236	 0.152969554066658 
2237	 0.153266385197639 
2238	 0.153483182191849 
2239	 0.153754681348801 
2240	 0.153987497091293 
2241	 0.154166027903557 
2242	 0.154336646199226 
2243	 0.154471755027771 
2244	 0.154582038521767 
2245	 0.154752776026726 
2246	 0.155058264732361 
2247	 0.155294567346573 
2248	 0.155540004372597 
2249	 0.155838117003441 
2250	 0.155922442674637 
2251	 0.156010180711746 
2252	 0.156139478087425 
2253	 0.156223595142365 
2254	 0.156342729926109 
2255	 0.156599879264832 
2256	 0.156681656837463 
2257	 0.156641572713852 
2258	 0.156702190637589 
2259	 0.15663343667984 
2260	 0.156726032495499 
2261	 0.157098591327667 
2262	 0.157179862260818 
2263	 0.15716814994812 
2264	 0.157173037528992 
2265	 0.156912311911583 
2266	 0.156937003135681 
2267	 0.157222285866737 
2268	 0.157338991761208 
2269	 0.157554134726524 
2270	 0.157595664262772 
2271	 0.157425582408905 
2272	 0.157330617308617 
2273	 0.157295927405357 
2274	 0.157201632857323 
2275	 0.157101228833199 
2276	 0.157002180814743 
2277	 0.156748697161675 
2278	 0.156575575470924 
2279	 0.156546995043755 
2280	 0.15647354722023 
2281	 0.156542554497719 
2282	 0.156668439507484 
2283	 0.156674012541771 
2284	 0.156568557024002 
2285	 0.156402453780174 
2286	 0.156115755438805 
2287	 0.155929490923882 
2288	 0.155945718288422 
2289	 0.155763849616051 
2290	 0.155591458082199 
2291	 0.155423894524574 
2292	 0.15511579811573 
2293	 0.154891267418861 
2294	 0.154818415641785 
2295	 0.154603376984596 
2296	 0.154291689395905 
2297	 0.15398645401001 
2298	 0.153599113225937 
2299	 0.153308227658272 
2300	 0.153079688549042 
2301	 0.152823030948639 
2302	 0.15264718234539 
2303	 0.152370914816856 
2304	 0.1519815325737 
2305	 0.151642337441444 
2306	 0.151311606168747 
2307	 0.150946766138077 
2308	 0.15056785941124 
2309	 0.150169625878334 
2310	 0.149730026721954 
2311	 0.149314403533936 
2312	 0.148898333311081 
2313	 0.148497581481934 
2314	 0.148104593157768 
2315	 0.147715881466866 
2316	 0.147327050566673 
2317	 0.146984949707985 
2318	 0.146621987223625 
2319	 0.146182999014854 
2320	 0.145612210035324 
2321	 0.145083427429199 
2322	 0.144718497991562 
2323	 0.144457787275314 
2324	 0.144245266914368 
2325	 0.143802016973495 
2326	 0.143090635538101 
2327	 0.142383590340614 
2328	 0.141846224665642 
2329	 0.141414508223534 
2330	 0.140927776694298 
2331	 0.140279412269592 
2332	 0.139550507068634 
2333	 0.13901723921299 
2334	 0.138593003153801 
2335	 0.138136029243469 
2336	 0.137765347957611 
2337	 0.137285456061363 
2338	 0.136809140443802 
2339	 0.136646166443825 
2340	 0.136417105793953 
2341	 0.136065572500229 
2342	 0.135943561792374 
2343	 0.135888606309891 
2344	 0.135622963309288 
2345	 0.135173052549362 
2346	 0.134893164038658 
2347	 0.134787574410439 
2348	 0.134740740060806 
2349	 0.135038733482361 
2350	 0.13508714735508 
2351	 0.13495846092701 
2352	 0.134886562824249 
2353	 0.134781002998352 
2354	 0.134835302829742 
2355	 0.135003432631493 
2356	 0.135142967104912 
2357	 0.135357171297073 
2358	 0.13546547293663 
2359	 0.135436564683914 
2360	 0.135591059923172 
2361	 0.135868713259697 
2362	 0.136091157793999 
2363	 0.136444181203842 
2364	 0.136611372232437 
2365	 0.136649399995804 
2366	 0.136625826358795 
2367	 0.136396616697311 
2368	 0.136504411697388 
2369	 0.136745914816856 
2370	 0.136850088834763 
2371	 0.137241750955582 
2372	 0.137196883559227 
2373	 0.136662513017654 
2374	 0.136547446250916 
2375	 0.136480510234833 
2376	 0.136382415890694 
2377	 0.136507213115692 
2378	 0.13643653690815 
2379	 0.136137098073959 
2380	 0.135981932282448 
2381	 0.135873436927795 
2382	 0.13580447435379 
2383	 0.135747596621513 
2384	 0.135763049125671 
2385	 0.135973572731018 
2386	 0.135873883962631 
2387	 0.135631740093231 
2388	 0.135544985532761 
2389	 0.135120749473572 
2390	 0.135216817259789 
2391	 0.135982602834702 
2392	 0.136054739356041 
2393	 0.136016771197319 
2394	 0.135967820882797 
2395	 0.135399669408798 
2396	 0.135194271802902 
2397	 0.135348603129387 
2398	 0.135264813899994 
2399	 0.135106757283211 
2400	 0.134964391589165 
2401	 0.134710937738419 
2402	 0.134567752480507 
2403	 0.134570062160492 
2404	 0.134379118680954 
2405	 0.134088099002838 
2406	 0.13392947614193 
2407	 0.133789539337158 
2408	 0.133451372385025 
2409	 0.133194118738174 
2410	 0.132737368345261 
2411	 0.131812736392021 
2412	 0.131316408514977 
2413	 0.131011366844177 
2414	 0.13069199025631 
2415	 0.130452856421471 
2416	 0.130302369594574 
2417	 0.130275562405586 
2418	 0.130101144313812 
2419	 0.130179762840271 
2420	 0.12984237074852 
2421	 0.128854006528854 
2422	 0.128544256091118 
2423	 0.128689467906952 
2424	 0.128198683261871 
2425	 0.127618134021759 
2426	 0.127219632267952 
2427	 0.126220867037773 
2428	 0.125813603401184 
2429	 0.126190900802612 
2430	 0.126203089952469 
2431	 0.126200497150421 
2432	 0.125877872109413 
2433	 0.125349432229996 
2434	 0.12497716397047 
2435	 0.124380029737949 
2436	 0.124047219753265 
2437	 0.123894013464451 
2438	 0.123836509883404 
2439	 0.123847454786301 
2440	 0.123869068920612 
2441	 0.124294266104698 
2442	 0.124205939471722 
2443	 0.123674899339676 
2444	 0.123627088963985 
2445	 0.123560667037964 
2446	 0.123546183109283 
2447	 0.123823404312134 
2448	 0.123975217342377 
2449	 0.124135330319405 
2450	 0.123979948461056 
2451	 0.123611889779568 
2452	 0.123747229576111 
2453	 0.123739942908287 
2454	 0.123953893780708 
2455	 0.124942272901535 
2456	 0.125556781888008 
2457	 0.125529587268829 
2458	 0.125731334090233 
2459	 0.125804468989372 
2460	 0.125266790390015 
2461	 0.125161588191986 
2462	 0.125644981861115 
2463	 0.126233324408531 
2464	 0.126967638731003 
2465	 0.127321258187294 
2466	 0.127007260918617 
2467	 0.126798138022423 
2468	 0.126231238245964 
2469	 0.126232162117958 
2470	 0.126766815781593 
2471	 0.126943647861481 
2472	 0.127391487360001 
2473	 0.127631574869156 
2474	 0.127252444624901 
2475	 0.127237126231194 
2476	 0.12742155790329 
2477	 0.127713203430176 
2478	 0.128522396087646 
2479	 0.128650858998299 
2480	 0.128435030579567 
2481	 0.128310859203339 
2482	 0.127811625599861 
2483	 0.127257332205772 
2484	 0.126503512263298 
2485	 0.126293107867241 
2486	 0.126053705811501 
2487	 0.126072838902473 
2488	 0.12689445912838 
2489	 0.127338320016861 
2490	 0.127908885478973 
2491	 0.127756610512733 
2492	 0.126937255263329 
2493	 0.1268560141325 
2494	 0.126281246542931 
2495	 0.126550018787384 
2496	 0.128327026963234 
2497	 0.128622502088547 
2498	 0.128244549036026 
2499	 0.128257900476456 
2500	 0.127854064106941 
