
Text conversion of header file \A_MEDIDAS\PROJETOS\BRASIL\BLOCO GAVIAO\JACOBINA\CANIF27\sco\CANIF27_008.46_00004.asd.ref
 -------------------------------------------------------------
Intemperizada                                                                                                                                               
The instrument number was  16586/1
New ASD spectrum file: Program version = 6.00 file version = 1.00
Spectrum saved: 10/16/2018 at 10:00:14
VNIR integration time : 34
VNIR channel 1 wavelength = 350 wavelength step = 1
There were 50 samples per data value
xmin = 350 xmax= 2500
ymin= 0 ymax= 1.25
The instrument digitizes spectral values to 16 bits
SWIR1 gain was 214 offset was 2097
SWIR2 gain was 513 offset was 2267
Join between VNIR and SWIR1 was 1000 nm
Join between SWIR1 and SWIR2 was 1830 nm
Absolute Reflectance is Enabled
The Absolute Reflectance File is abs165861.ref
VNIR dark signal subtracted
50 dark measurements taken Tue Oct 16 09:52:54 2018
DCC value was 0
Data is compared to a white reference:
60 white reference measurements taken Tue Oct 16 09:53:02 2018
There was no foreoptic attached
Spectrum file is reflectance data
GPS-Latitude is S0
GPS-Longitude is E0
GPS-Altitude is 0
GPS-UTC is Wed Dec 31 17:00:00 1969

Smart Detector
Serial#  0
Signal (A)  0.000E00
Dark (A)  0.000E00
Ref (A)  0.000E00
Status  0 - Uninitialized
Gain  E-4
Averaging  0
Temp (C)  0.0
Humid (%)  0.0

Reflectance Absolute
Wavelength	CANIF27_8.46_00004.asd.ref
350	 0.16174453496933 
351	 0.15647991001606 
352	 0.154905393719673 
353	 0.155038148164749 
354	 0.154437467455864 
355	 0.154635652899742 
356	 0.161805495619774 
357	 0.166090607643127 
358	 0.158654257655144 
359	 0.155500695109367 
360	 0.158299341797829 
361	 0.162844017148018 
362	 0.162262633442879 
363	 0.155673742294312 
364	 0.15423221886158 
365	 0.160995900630951 
366	 0.16680608689785 
367	 0.163130804896355 
368	 0.157960876822472 
369	 0.159140661358833 
370	 0.162379041314125 
371	 0.165525004267693 
372	 0.166829392313957 
373	 0.165473356842995 
374	 0.164138108491898 
375	 0.164817541837692 
376	 0.166814371943474 
377	 0.167052611708641 
378	 0.167924508452415 
379	 0.169556647539139 
380	 0.17092752456665 
381	 0.168979108333588 
382	 0.169583305716515 
383	 0.171186149120331 
384	 0.170672461390495 
385	 0.172859787940979 
386	 0.173806607723236 
387	 0.173764616250992 
388	 0.176635712385178 
389	 0.176696330308914 
390	 0.176144868135452 
391	 0.176972255110741 
392	 0.17813615500927 
393	 0.179212659597397 
394	 0.180378764867783 
395	 0.181647717952728 
396	 0.18098846077919 
397	 0.181871339678764 
398	 0.183920741081238 
399	 0.183957681059837 
400	 0.184621587395668 
401	 0.185449093580246 
402	 0.185933724045753 
403	 0.186301022768021 
404	 0.18563811480999 
405	 0.185777634382248 
406	 0.188017427921295 
407	 0.188430473208427 
408	 0.188764601945877 
409	 0.189429134130478 
410	 0.189864277839661 
411	 0.190574750304222 
412	 0.190945342183113 
413	 0.191345378756523 
414	 0.19399082660675 
415	 0.194672822952271 
416	 0.194440960884094 
417	 0.195152744650841 
418	 0.19587767124176 
419	 0.196646511554718 
420	 0.197743788361549 
421	 0.199446454644203 
422	 0.20054404437542 
423	 0.201567441225052 
424	 0.202654108405113 
425	 0.203001067042351 
426	 0.204258278012276 
427	 0.205588027834892 
428	 0.206160709261894 
429	 0.207615166902542 
430	 0.20886418223381 
431	 0.209749042987823 
432	 0.210699766874313 
433	 0.211504474282265 
434	 0.212638258934021 
435	 0.214148432016373 
436	 0.21538670361042 
437	 0.216134294867516 
438	 0.217079102993011 
439	 0.218719303607941 
440	 0.219987258315086 
441	 0.221020326018333 
442	 0.221940219402313 
443	 0.222832918167114 
444	 0.223650187253952 
445	 0.224609360098839 
446	 0.225724250078201 
447	 0.226650536060333 
448	 0.227294355630875 
449	 0.227835729718208 
450	 0.228464722633362 
451	 0.229010283946991 
452	 0.229634374380112 
453	 0.230327680706978 
454	 0.230959370732307 
455	 0.231638357043266 
456	 0.232360422611237 
457	 0.233045607805252 
458	 0.233473986387253 
459	 0.23402427136898 
460	 0.234755367040634 
461	 0.235586300492287 
462	 0.23636682331562 
463	 0.237131863832474 
464	 0.237818390130997 
465	 0.238292440772057 
466	 0.238983109593391 
467	 0.239723682403564 
468	 0.240345105528831 
469	 0.240916401147842 
470	 0.241554096341133 
471	 0.242241680622101 
472	 0.242913916707039 
473	 0.24357981979847 
474	 0.244286224246025 
475	 0.245055451989174 
476	 0.245876327157021 
477	 0.246707543730736 
478	 0.247527942061424 
479	 0.248309582471848 
480	 0.248951196670532 
481	 0.249853655695915 
482	 0.250792145729065 
483	 0.251353949308395 
484	 0.252287954092026 
485	 0.253246128559113 
486	 0.254027187824249 
487	 0.254764139652252 
488	 0.255618691444397 
489	 0.256515681743622 
490	 0.257330924272537 
491	 0.25802606344223 
492	 0.258607029914856 
493	 0.259079366922379 
494	 0.259485363960266 
495	 0.260207891464233 
496	 0.260970830917358 
497	 0.261633545160294 
498	 0.262426167726517 
499	 0.263283163309097 
500	 0.26412233710289 
501	 0.264915645122528 
502	 0.26592743396759 
503	 0.266746133565903 
504	 0.267384320497513 
505	 0.268190950155258 
506	 0.268925815820694 
507	 0.269612073898315 
508	 0.270287156105042 
509	 0.270927399396896 
510	 0.271565228700638 
511	 0.272247791290283 
512	 0.272993326187134 
513	 0.273652255535126 
514	 0.27428275346756 
515	 0.27490371465683 
516	 0.275480180978775 
517	 0.27597764134407 
518	 0.276463001966476 
519	 0.277003467082977 
520	 0.277635514736176 
521	 0.278087168931961 
522	 0.278455018997192 
523	 0.278972506523132 
524	 0.279429167509079 
525	 0.279906183481216 
526	 0.280394583940506 
527	 0.280736953020096 
528	 0.281082272529602 
529	 0.281474560499191 
530	 0.281909167766571 
531	 0.282328575849533 
532	 0.282684445381165 
533	 0.283019036054611 
534	 0.283430129289627 
535	 0.283956706523895 
536	 0.284445255994797 
537	 0.284823596477509 
538	 0.285190522670746 
539	 0.285628199577332 
540	 0.286112129688263 
541	 0.286595553159714 
542	 0.287140280008316 
543	 0.287574470043182 
544	 0.287966966629028 
545	 0.288567334413528 
546	 0.289053589105606 
547	 0.289508104324341 
548	 0.290004909038544 
549	 0.290436893701553 
550	 0.290925085544586 
551	 0.291465818881989 
552	 0.292005211114883 
553	 0.292518824338913 
554	 0.292984873056412 
555	 0.293368428945541 
556	 0.293625205755234 
557	 0.293975919485092 
558	 0.294435948133469 
559	 0.294972509145737 
560	 0.29558664560318 
561	 0.296151727437973 
562	 0.296567171812058 
563	 0.296801865100861 
564	 0.297199994325638 
565	 0.297561556100845 
566	 0.297815531492233 
567	 0.298149853944778 
568	 0.298399984836578 
569	 0.298533946275711 
570	 0.298551589250565 
571	 0.298401832580566 
572	 0.298318773508072 
573	 0.298389822244644 
574	 0.298586785793304 
575	 0.298931360244751 
576	 0.299283146858215 
577	 0.299545794725418 
578	 0.299744784832001 
579	 0.299908965826035 
580	 0.300041496753693 
581	 0.300122529268265 
582	 0.300067991018295 
583	 0.300010770559311 
584	 0.299960792064667 
585	 0.299813747406006 
586	 0.299557864665985 
587	 0.299330413341522 
588	 0.29927334189415 
589	 0.299507349729538 
590	 0.299729555845261 
591	 0.299838989973068 
592	 0.299830377101898 
593	 0.299680083990097 
594	 0.299583405256271 
595	 0.299592882394791 
596	 0.299588441848755 
597	 0.29937955737114 
598	 0.299024730920792 
599	 0.298624932765961 
600	 0.298217982053757 
601	 0.297783195972443 
602	 0.29737177491188 
603	 0.29704087972641 
604	 0.296631395816803 
605	 0.296355158090591 
606	 0.296285271644592 
607	 0.296273291110992 
608	 0.296168297529221 
609	 0.295940637588501 
610	 0.295648366212845 
611	 0.295493811368942 
612	 0.295271724462509 
613	 0.294957667589188 
614	 0.294636577367783 
615	 0.294260442256927 
616	 0.294055044651031 
617	 0.293998807668686 
618	 0.293651401996613 
619	 0.293286979198456 
620	 0.292973011732101 
621	 0.292724519968033 
622	 0.292576998472214 
623	 0.292388677597046 
624	 0.292080104351044 
625	 0.291653513908386 
626	 0.291384190320969 
627	 0.291189253330231 
628	 0.290976077318192 
629	 0.290737062692642 
630	 0.290374040603638 
631	 0.290006726980209 
632	 0.289768040180206 
633	 0.289543718099594 
634	 0.289262652397156 
635	 0.288945972919464 
636	 0.28868493437767 
637	 0.28851318359375 
638	 0.288255274295807 
639	 0.287869483232498 
640	 0.28762611746788 
641	 0.287303775548935 
642	 0.287000268697739 
643	 0.286826252937317 
644	 0.286457657814026 
645	 0.286107957363129 
646	 0.285815060138702 
647	 0.285472869873047 
648	 0.28525310754776 
649	 0.285013318061829 
650	 0.28467869758606 
651	 0.284396797418594 
652	 0.28412714600563 
653	 0.283847212791443 
654	 0.283543199300766 
655	 0.28322833776474 
656	 0.282936245203018 
657	 0.282695323228836 
658	 0.282512634992599 
659	 0.282198488712311 
660	 0.281918793916702 
661	 0.281738340854645 
662	 0.281426757574081 
663	 0.281161904335022 
664	 0.280890643596649 
665	 0.280552536249161 
666	 0.2803875207901 
667	 0.280142486095428 
668	 0.279825955629349 
669	 0.279633939266205 
670	 0.279394447803497 
671	 0.279098927974701 
672	 0.278804570436478 
673	 0.278643190860748 
674	 0.278395116329193 
675	 0.278125762939453 
676	 0.277936697006226 
677	 0.277720332145691 
678	 0.277471840381622 
679	 0.277217417955399 
680	 0.276997983455658 
681	 0.276786178350449 
682	 0.276573687791824 
683	 0.276362597942352 
684	 0.276166141033173 
685	 0.276009857654572 
686	 0.275841385126114 
687	 0.275621861219406 
688	 0.275417059659958 
689	 0.27525070309639 
690	 0.275081902742386 
691	 0.274859249591827 
692	 0.274730235338211 
693	 0.274647235870361 
694	 0.274545043706894 
695	 0.274366497993469 
696	 0.274186283349991 
697	 0.274091213941574 
698	 0.274080127477646 
699	 0.27392902970314 
700	 0.27376526594162 
701	 0.273671478033066 
702	 0.273670315742493 
703	 0.273562341928482 
704	 0.273493617773056 
705	 0.273493677377701 
706	 0.273467659950256 
707	 0.273354351520538 
708	 0.273306310176849 
709	 0.273368835449219 
710	 0.273325651884079 
711	 0.273285388946533 
712	 0.273275762796402 
713	 0.273289352655411 
714	 0.273278057575226 
715	 0.273257434368134 
716	 0.27323380112648 
717	 0.273217469453812 
718	 0.273305118083954 
719	 0.273396760225296 
720	 0.273417264223099 
721	 0.27335661649704 
722	 0.27343362569809 
723	 0.273626655340195 
724	 0.273817837238312 
725	 0.273792535066605 
726	 0.2737837433815 
727	 0.273867040872574 
728	 0.274020314216614 
729	 0.274079620838165 
730	 0.274193286895752 
731	 0.274367988109589 
732	 0.274488896131516 
733	 0.274522632360458 
734	 0.274599492549896 
735	 0.274767726659775 
736	 0.274918049573898 
737	 0.275208532810211 
738	 0.275423973798752 
739	 0.275418162345886 
740	 0.27548936009407 
741	 0.275680840015411 
742	 0.275936990976334 
743	 0.276160269975662 
744	 0.276341885328293 
745	 0.276524752378464 
746	 0.276716470718384 
747	 0.276894509792328 
748	 0.277090311050415 
749	 0.277266085147858 
750	 0.277455478906631 
751	 0.277813047170639 
752	 0.277991652488709 
753	 0.278157353401184 
754	 0.278457850217819 
755	 0.278591960668564 
756	 0.278848558664322 
757	 0.279194355010986 
758	 0.279463827610016 
759	 0.27956959605217 
760	 0.279744505882263 
761	 0.280034482479095 
762	 0.280323266983032 
763	 0.280551314353943 
764	 0.280778378248215 
765	 0.281029403209686 
766	 0.281261473894119 
767	 0.281427145004272 
768	 0.281657159328461 
769	 0.281984329223633 
770	 0.282123148441315 
771	 0.282393634319305 
772	 0.282689452171326 
773	 0.282835304737091 
774	 0.282962262630463 
775	 0.283142298460007 
776	 0.283349990844727 
777	 0.283516466617584 
778	 0.283693581819534 
779	 0.283875286579132 
780	 0.284048587083817 
781	 0.284198194742203 
782	 0.284316092729568 
783	 0.284398883581162 
784	 0.284490317106247 
785	 0.284694671630859 
786	 0.28478467464447 
787	 0.284823536872864 
788	 0.284896701574326 
789	 0.284966140985489 
790	 0.28503555059433 
791	 0.285050094127655 
792	 0.285000562667847 
793	 0.285110056400299 
794	 0.285250514745712 
795	 0.285280406475067 
796	 0.28512516617775 
797	 0.28507399559021 
798	 0.285029232501984 
799	 0.284986972808838 
800	 0.285019993782043 
801	 0.284983605146408 
802	 0.284868508577347 
803	 0.284730702638626 
804	 0.284668803215027 
805	 0.284521281719208 
806	 0.284410685300827 
807	 0.284397065639496 
808	 0.284341245889664 
809	 0.284138739109039 
810	 0.283859670162201 
811	 0.283620089292526 
812	 0.283519715070724 
813	 0.283373236656189 
814	 0.283159494400024 
815	 0.28293514251709 
816	 0.282807409763336 
817	 0.282605320215225 
818	 0.282331556081772 
819	 0.282074004411697 
820	 0.281837791204453 
821	 0.281616657972336 
822	 0.281371980905533 
823	 0.281066805124283 
824	 0.280832052230835 
825	 0.280557364225388 
826	 0.280249714851379 
827	 0.280026972293854 
828	 0.27973484992981 
829	 0.279439479112625 
830	 0.279160976409912 
831	 0.278830409049988 
832	 0.278514355421066 
833	 0.278259545564651 
834	 0.278019189834595 
835	 0.277617603540421 
836	 0.277320384979248 
837	 0.277005344629288 
838	 0.276609778404236 
839	 0.276379495859146 
840	 0.276173949241638 
841	 0.275918751955032 
842	 0.275585919618607 
843	 0.275219172239304 
844	 0.274825513362885 
845	 0.274462014436722 
846	 0.274174094200134 
847	 0.27392715215683 
848	 0.273662239313126 
849	 0.273372024297714 
850	 0.273067981004715 
851	 0.272736012935638 
852	 0.272329330444336 
853	 0.271929413080215 
854	 0.271655648946762 
855	 0.271499454975128 
856	 0.271313369274139 
857	 0.271044611930847 
858	 0.270707815885544 
859	 0.270288378000259 
860	 0.269951403141022 
861	 0.269686251878738 
862	 0.269382655620575 
863	 0.269160389900208 
864	 0.268856227397919 
865	 0.268497675657272 
866	 0.26824101805687 
867	 0.267967134714127 
868	 0.267779380083084 
869	 0.267668157815933 
870	 0.267513573169708 
871	 0.267232835292816 
872	 0.266909539699554 
873	 0.266631305217743 
874	 0.26645216345787 
875	 0.266332536935806 
876	 0.266060680150986 
877	 0.265705645084381 
878	 0.26556658744812 
879	 0.265430957078934 
880	 0.265180855989456 
881	 0.264878064393997 
882	 0.264719039201736 
883	 0.264598995447159 
884	 0.264405727386475 
885	 0.264190137386322 
886	 0.264122754335403 
887	 0.263943612575531 
888	 0.26371306180954 
889	 0.263543725013733 
890	 0.263516426086426 
891	 0.263389706611633 
892	 0.263181388378143 
893	 0.263023436069489 
894	 0.263060867786407 
895	 0.262933820486069 
896	 0.262814670801163 
897	 0.262732952833176 
898	 0.262555480003357 
899	 0.26240411400795 
900	 0.262356966733933 
901	 0.262371361255646 
902	 0.262315899133682 
903	 0.262159615755081 
904	 0.262050658464432 
905	 0.262023895978928 
906	 0.261999756097794 
907	 0.261896103620529 
908	 0.261789411306381 
909	 0.26177915930748 
910	 0.261897295713425 
911	 0.261817365884781 
912	 0.261759042739868 
913	 0.261731445789337 
914	 0.261652857065201 
915	 0.261786460876465 
916	 0.261830002069473 
917	 0.261787176132202 
918	 0.261801809072495 
919	 0.261811912059784 
920	 0.261738449335098 
921	 0.261700123548508 
922	 0.261815667152405 
923	 0.261899054050446 
924	 0.261947929859161 
925	 0.262032210826874 
926	 0.262166261672974 
927	 0.262132287025452 
928	 0.262196600437164 
929	 0.262274742126465 
930	 0.262263357639313 
931	 0.262253254652023 
932	 0.262314975261688 
933	 0.262412488460541 
934	 0.262500494718552 
935	 0.262574940919876 
936	 0.262671113014221 
937	 0.262777149677277 
938	 0.262866407632828 
939	 0.262917339801788 
940	 0.263017565011978 
941	 0.263053596019745 
942	 0.263075172901154 
943	 0.263249576091766 
944	 0.263316929340363 
945	 0.263354420661926 
946	 0.263437479734421 
947	 0.263575851917267 
948	 0.263592749834061 
949	 0.263663709163666 
950	 0.263810962438583 
951	 0.263977020978928 
952	 0.264145374298096 
953	 0.264347940683365 
954	 0.264461755752563 
955	 0.264442563056946 
956	 0.264525949954987 
957	 0.264700919389725 
958	 0.264885097742081 
959	 0.265038251876831 
960	 0.265213817358017 
961	 0.265370607376099 
962	 0.265507757663727 
963	 0.265664994716644 
964	 0.265883356332779 
965	 0.265994340181351 
966	 0.266110241413116 
967	 0.266250729560852 
968	 0.266380727291107 
969	 0.266582906246185 
970	 0.26679602265358 
971	 0.266907215118408 
972	 0.266920059919357 
973	 0.267152845859528 
974	 0.267419189214706 
975	 0.267543107271194 
976	 0.26752969622612 
977	 0.267640888690948 
978	 0.267986655235291 
979	 0.268352836370468 
980	 0.268553078174591 
981	 0.268568813800812 
982	 0.268763870000839 
983	 0.268943518400192 
984	 0.269113212823868 
985	 0.269345104694366 
986	 0.269466757774353 
987	 0.269675612449646 
988	 0.26988422870636 
989	 0.270022988319397 
990	 0.270218908786774 
991	 0.270472437143326 
992	 0.270763576030731 
993	 0.271065056324005 
994	 0.27134844660759 
995	 0.271559864282608 
996	 0.271797269582748 
997	 0.272037029266357 
998	 0.272255182266235 
999	 0.27267250418663 
1000	 0.273074120283127 
1001	 0.266879677772522 
1002	 0.267098426818848 
1003	 0.267287462949753 
1004	 0.267508655786514 
1005	 0.267794638872147 
1006	 0.26804718375206 
1007	 0.268292039632797 
1008	 0.268595486879349 
1009	 0.268902897834778 
1010	 0.269243955612183 
1011	 0.269517660140991 
1012	 0.269796907901764 
1013	 0.270034372806549 
1014	 0.270213037729263 
1015	 0.270420849323273 
1016	 0.27065971493721 
1017	 0.270807057619095 
1018	 0.271039515733719 
1019	 0.271236300468445 
1020	 0.271461963653564 
1021	 0.271863549947739 
1022	 0.272182077169418 
1023	 0.272456437349319 
1024	 0.272718518972397 
1025	 0.272951900959015 
1026	 0.273141473531723 
1027	 0.273296892642975 
1028	 0.273460626602173 
1029	 0.273561775684357 
1030	 0.273732542991638 
1031	 0.273937433958054 
1032	 0.274173498153687 
1033	 0.274454861879349 
1034	 0.274680137634277 
1035	 0.274950981140137 
1036	 0.275159895420074 
1037	 0.275286018848419 
1038	 0.275487244129181 
1039	 0.275635808706284 
1040	 0.275686740875244 
1041	 0.275837808847427 
1042	 0.2760309278965 
1043	 0.276209235191345 
1044	 0.276430130004883 
1045	 0.276641756296158 
1046	 0.276764452457428 
1047	 0.27688404917717 
1048	 0.276982188224792 
1049	 0.277079641819 
1050	 0.277207434177399 
1051	 0.277321189641953 
1052	 0.277387022972107 
1053	 0.277454137802124 
1054	 0.277541130781174 
1055	 0.277618020772934 
1056	 0.277720838785172 
1057	 0.277852296829224 
1058	 0.277986407279968 
1059	 0.278079062700272 
1060	 0.278188169002533 
1061	 0.278298228979111 
1062	 0.278400957584381 
1063	 0.278524309396744 
1064	 0.278618782758713 
1065	 0.278621226549149 
1066	 0.278640151023865 
1067	 0.278680175542831 
1068	 0.278731107711792 
1069	 0.278822273015976 
1070	 0.278970420360565 
1071	 0.279096752405167 
1072	 0.279234439134598 
1073	 0.279395073652267 
1074	 0.279496967792511 
1075	 0.279600828886032 
1076	 0.279692739248276 
1077	 0.279709905385971 
1078	 0.279832154512405 
1079	 0.280001670122147 
1080	 0.280107498168945 
1081	 0.280252367258072 
1082	 0.280340403318405 
1083	 0.280403584241867 
1084	 0.280527979135513 
1085	 0.28065350651741 
1086	 0.280791938304901 
1087	 0.280965238809586 
1088	 0.281127721071243 
1089	 0.28119832277298 
1090	 0.281279861927032 
1091	 0.28135147690773 
1092	 0.281412243843079 
1093	 0.281573176383972 
1094	 0.281768649816513 
1095	 0.281991392374039 
1096	 0.282205909490585 
1097	 0.282347440719604 
1098	 0.28250378370285 
1099	 0.282650530338287 
1100	 0.282736778259277 
1101	 0.28285026550293 
1102	 0.282985597848892 
1103	 0.283112943172455 
1104	 0.283211350440979 
1105	 0.283338278532028 
1106	 0.28346186876297 
1107	 0.283572793006897 
1108	 0.283730059862137 
1109	 0.283937096595764 
1110	 0.284136384725571 
1111	 0.284278184175491 
1112	 0.284430712461472 
1113	 0.284611195325851 
1114	 0.284792691469193 
1115	 0.285053044557571 
1116	 0.285256534814835 
1117	 0.285435050725937 
1118	 0.285566300153732 
1119	 0.285735338926315 
1120	 0.28586146235466 
1121	 0.286026358604431 
1122	 0.286195635795593 
1123	 0.286299169063568 
1124	 0.286466032266617 
1125	 0.286635875701904 
1126	 0.286795347929001 
1127	 0.28701588511467 
1128	 0.287187844514847 
1129	 0.287400126457214 
1130	 0.287637442350388 
1131	 0.287800431251526 
1132	 0.287997245788574 
1133	 0.288163900375366 
1134	 0.288318634033203 
1135	 0.288428604602814 
1136	 0.288630127906799 
1137	 0.288853615522385 
1138	 0.289030104875565 
1139	 0.289264321327209 
1140	 0.289505898952484 
1141	 0.289654314517975 
1142	 0.289860874414444 
1143	 0.290109664201736 
1144	 0.290324598550797 
1145	 0.290551573038101 
1146	 0.290745854377747 
1147	 0.290895134210587 
1148	 0.291057795286179 
1149	 0.291255921125412 
1150	 0.291489213705063 
1151	 0.291718065738678 
1152	 0.29197296500206 
1153	 0.292210400104523 
1154	 0.292440682649612 
1155	 0.292672276496887 
1156	 0.292949706315994 
1157	 0.293261647224426 
1158	 0.29359558224678 
1159	 0.293925404548645 
1160	 0.294203996658325 
1161	 0.294469386339188 
1162	 0.29472804069519 
1163	 0.295019239187241 
1164	 0.295349925756454 
1165	 0.295689553022385 
1166	 0.296020984649658 
1167	 0.29635563492775 
1168	 0.296661585569382 
1169	 0.296951562166214 
1170	 0.297259449958801 
1171	 0.297526717185974 
1172	 0.297860145568848 
1173	 0.29825821518898 
1174	 0.298634916543961 
1175	 0.299028068780899 
1176	 0.299405485391617 
1177	 0.299760192632675 
1178	 0.300104409456253 
1179	 0.300418257713318 
1180	 0.300740510225296 
1181	 0.301079660654068 
1182	 0.3014055788517 
1183	 0.301740378141403 
1184	 0.302092224359512 
1185	 0.302462041378021 
1186	 0.30284371972084 
1187	 0.303221434354782 
1188	 0.303619474172592 
1189	 0.304015785455704 
1190	 0.304404646158218 
1191	 0.304764211177826 
1192	 0.305142015218735 
1193	 0.305549740791321 
1194	 0.305950105190277 
1195	 0.306354433298111 
1196	 0.306751430034637 
1197	 0.307126462459564 
1198	 0.307488292455673 
1199	 0.307830333709717 
1200	 0.308232337236404 
1201	 0.308696031570435 
1202	 0.309118300676346 
1203	 0.309576421976089 
1204	 0.309976249933243 
1205	 0.310307264328003 
1206	 0.310669124126434 
1207	 0.311008542776108 
1208	 0.311390072107315 
1209	 0.311819672584534 
1210	 0.312224566936493 
1211	 0.312623113393784 
1212	 0.313010603189468 
1213	 0.313388675451279 
1214	 0.313814401626587 
1215	 0.314242541790009 
1216	 0.314660608768463 
1217	 0.315072536468506 
1218	 0.315424591302872 
1219	 0.315819501876831 
1220	 0.316215634346008 
1221	 0.316666930913925 
1222	 0.317182868719101 
1223	 0.317637771368027 
1224	 0.318109512329102 
1225	 0.318532109260559 
1226	 0.318880319595337 
1227	 0.319282233715057 
1228	 0.319703966379166 
1229	 0.320125073194504 
1230	 0.320580095052719 
1231	 0.32101172208786 
1232	 0.32144883275032 
1233	 0.321877300739288 
1234	 0.322287857532501 
1235	 0.322724014520645 
1236	 0.32314994931221 
1237	 0.323589831590652 
1238	 0.324028342962265 
1239	 0.324470669031143 
1240	 0.324915856122971 
1241	 0.325374335050583 
1242	 0.325816243886948 
1243	 0.326272994279861 
1244	 0.326708376407623 
1245	 0.327090054750443 
1246	 0.327505588531494 
1247	 0.32792791724205 
1248	 0.328367203474045 
1249	 0.328815758228302 
1250	 0.329309970140457 
1251	 0.329754680395126 
1252	 0.330152034759521 
1253	 0.330544829368591 
1254	 0.330940097570419 
1255	 0.33137771487236 
1256	 0.331827193498611 
1257	 0.332298666238785 
1258	 0.332762062549591 
1259	 0.333207041025162 
1260	 0.333648443222046 
1261	 0.334092110395432 
1262	 0.334518790245056 
1263	 0.334935754537582 
1264	 0.33534249663353 
1265	 0.335758060216904 
1266	 0.336163252592087 
1267	 0.336584031581879 
1268	 0.337033987045288 
1269	 0.337458908557892 
1270	 0.337876796722412 
1271	 0.338271945714951 
1272	 0.338692009449005 
1273	 0.339118033647537 
1274	 0.339516282081604 
1275	 0.339976131916046 
1276	 0.340450316667557 
1277	 0.340896010398865 
1278	 0.341355085372925 
1279	 0.341801345348358 
1280	 0.342241168022156 
1281	 0.342649221420288 
1282	 0.34307786822319 
1283	 0.343531936407089 
1284	 0.343956530094147 
1285	 0.344348847866058 
1286	 0.344778686761856 
1287	 0.345238864421844 
1288	 0.345651894807816 
1289	 0.3460633456707 
1290	 0.346473455429077 
1291	 0.346859186887741 
1292	 0.347218811511993 
1293	 0.347630053758621 
1294	 0.348016142845154 
1295	 0.348383039236069 
1296	 0.348770171403885 
1297	 0.349128305912018 
1298	 0.349490880966187 
1299	 0.349826008081436 
1300	 0.350143045186996 
1301	 0.350545585155487 
1302	 0.350977599620819 
1303	 0.351392477750778 
1304	 0.351845592260361 
1305	 0.352293312549591 
1306	 0.352730065584183 
1307	 0.353147983551025 
1308	 0.353529274463654 
1309	 0.354021996259689 
1310	 0.354557722806931 
1311	 0.355064302682877 
1312	 0.355674415826797 
1313	 0.35621851682663 
1314	 0.356668174266815 
1315	 0.357158869504929 
1316	 0.357681512832642 
1317	 0.358170539140701 
1318	 0.35864245891571 
1319	 0.35915419459343 
1320	 0.359718143939972 
1321	 0.36026194691658 
1322	 0.360773772001266 
1323	 0.361286044120789 
1324	 0.361770689487457 
1325	 0.362241297960281 
1326	 0.362730532884598 
1327	 0.363248944282532 
1328	 0.363732695579529 
1329	 0.364182770252228 
1330	 0.364678055047989 
1331	 0.365194469690323 
1332	 0.365682035684586 
1333	 0.366179525852203 
1334	 0.366656750440598 
1335	 0.367100030183792 
1336	 0.367553889751434 
1337	 0.368009746074677 
1338	 0.368458718061447 
1339	 0.368924707174301 
1340	 0.36934021115303 
1341	 0.369709104299545 
1342	 0.370107501745224 
1343	 0.370490282773972 
1344	 0.370839893817902 
1345	 0.371275961399078 
1346	 0.37173119187355 
1347	 0.372127413749695 
1348	 0.372538655996323 
1349	 0.372936546802521 
1350	 0.373279243707657 
1351	 0.373631447553635 
1352	 0.373993813991547 
1353	 0.374320238828659 
1354	 0.374609857797623 
1355	 0.374920755624771 
1356	 0.375212520360947 
1357	 0.375535190105438 
1358	 0.37587958574295 
1359	 0.376222789287567 
1360	 0.376595675945282 
1361	 0.376925349235535 
1362	 0.377241402864456 
1363	 0.377541065216064 
1364	 0.377830058336258 
1365	 0.378084301948547 
1366	 0.378334045410156 
1367	 0.378539592027664 
1368	 0.378713071346283 
1369	 0.378836303949356 
1370	 0.378954827785492 
1371	 0.378993719816208 
1372	 0.378986746072769 
1373	 0.378977566957474 
1374	 0.378894716501236 
1375	 0.37869131565094 
1376	 0.378442764282227 
1377	 0.378063410520554 
1378	 0.377570927143097 
1379	 0.376956164836884 
1380	 0.375832408666611 
1381	 0.374531030654907 
1382	 0.372557789087296 
1383	 0.3701191842556 
1384	 0.367171913385391 
1385	 0.363583862781525 
1386	 0.359941989183426 
1387	 0.355631500482559 
1388	 0.351807326078415 
1389	 0.347639620304108 
1390	 0.344312071800232 
1391	 0.341108739376068 
1392	 0.338807851076126 
1393	 0.337140142917633 
1394	 0.336094319820404 
1395	 0.335933089256287 
1396	 0.335940062999725 
1397	 0.3366459608078 
1398	 0.337310284376144 
1399	 0.338252246379852 
1400	 0.339217931032181 
1401	 0.340183645486832 
1402	 0.341093569993973 
1403	 0.341836929321289 
1404	 0.342524290084839 
1405	 0.343134492635727 
1406	 0.343662858009338 
1407	 0.344128549098969 
1408	 0.344569981098175 
1409	 0.34494337439537 
1410	 0.345268845558167 
1411	 0.345640599727631 
1412	 0.345926225185394 
1413	 0.346471428871155 
1414	 0.347040057182312 
1415	 0.347874820232391 
1416	 0.348914533853531 
1417	 0.350129723548889 
1418	 0.35157784819603 
1419	 0.353083938360214 
1420	 0.354860067367554 
1421	 0.356469482183456 
1422	 0.358182460069656 
1423	 0.359695196151733 
1424	 0.36115038394928 
1425	 0.362441569566727 
1426	 0.36358317732811 
1427	 0.364616572856903 
1428	 0.365506738424301 
1429	 0.366319984197617 
1430	 0.366997718811035 
1431	 0.36764594912529 
1432	 0.368183672428131 
1433	 0.368717461824417 
1434	 0.369222432374954 
1435	 0.369680732488632 
1436	 0.370091438293457 
1437	 0.370517790317535 
1438	 0.370941519737244 
1439	 0.371347010135651 
1440	 0.371776014566422 
1441	 0.372229516506195 
1442	 0.372699856758118 
1443	 0.373169302940369 
1444	 0.373691439628601 
1445	 0.374245256185532 
1446	 0.374808758497238 
1447	 0.375406324863434 
1448	 0.375986963510513 
1449	 0.376580476760864 
1450	 0.377153217792511 
1451	 0.377703577280045 
1452	 0.378277748823166 
1453	 0.378863513469696 
1454	 0.379433333873749 
1455	 0.380002290010452 
1456	 0.380582511425018 
1457	 0.38114407658577 
1458	 0.381742209196091 
1459	 0.38238200545311 
1460	 0.382989078760147 
1461	 0.383590251207352 
1462	 0.384205847978592 
1463	 0.384813368320465 
1464	 0.385433912277222 
1465	 0.386078298091888 
1466	 0.386709004640579 
1467	 0.387337684631348 
1468	 0.387962698936462 
1469	 0.388578176498413 
1470	 0.389209538698196 
1471	 0.389863312244415 
1472	 0.390481203794479 
1473	 0.391074895858765 
1474	 0.391689896583557 
1475	 0.392305493354797 
1476	 0.392897397279739 
1477	 0.393497347831726 
1478	 0.394109427928925 
1479	 0.394667088985443 
1480	 0.395242899656296 
1481	 0.395865887403488 
1482	 0.396458357572556 
1483	 0.397040903568268 
1484	 0.397623270750046 
1485	 0.398169308900833 
1486	 0.398687869310379 
1487	 0.399175584316254 
1488	 0.399643540382385 
1489	 0.400136679410934 
1490	 0.400641471147537 
1491	 0.401151031255722 
1492	 0.401657164096832 
1493	 0.402112662792206 
1494	 0.402518093585968 
1495	 0.402928113937378 
1496	 0.403314739465714 
1497	 0.403697997331619 
1498	 0.404069274663925 
1499	 0.404441803693771 
1500	 0.404803961515427 
1501	 0.40516585111618 
1502	 0.405544281005859 
1503	 0.405879884958267 
1504	 0.40619096159935 
1505	 0.406496584415436 
1506	 0.406753927469254 
1507	 0.407059669494629 
1508	 0.407416224479675 
1509	 0.407698214054108 
1510	 0.407961934804916 
1511	 0.408222317695618 
1512	 0.408395975828171 
1513	 0.408651500940323 
1514	 0.408983141183853 
1515	 0.409272581338882 
1516	 0.40955638885498 
1517	 0.409857571125031 
1518	 0.410164594650269 
1519	 0.410440623760223 
1520	 0.410703361034393 
1521	 0.410995930433273 
1522	 0.411271870136261 
1523	 0.411566972732544 
1524	 0.411927551031113 
1525	 0.412238150835037 
1526	 0.412499576807022 
1527	 0.412792265415192 
1528	 0.413084775209427 
1529	 0.413382828235626 
1530	 0.413700014352798 
1531	 0.414007484912872 
1532	 0.414353221654892 
1533	 0.414687633514404 
1534	 0.415016353130341 
1535	 0.415397971868515 
1536	 0.415726453065872 
1537	 0.416049659252167 
1538	 0.416424989700317 
1539	 0.416751056909561 
1540	 0.417061358690262 
1541	 0.417388558387756 
1542	 0.417719393968582 
1543	 0.41810354590416 
1544	 0.418499439954758 
1545	 0.418873608112335 
1546	 0.419269949197769 
1547	 0.419662684202194 
1548	 0.420089840888977 
1549	 0.420570611953735 
1550	 0.42102375626564 
1551	 0.421440601348877 
1552	 0.421827763319016 
1553	 0.422218888998032 
1554	 0.42263251543045 
1555	 0.423069298267365 
1556	 0.423521101474762 
1557	 0.423954159021378 
1558	 0.424416750669479 
1559	 0.424853384494781 
1560	 0.425267934799194 
1561	 0.42573094367981 
1562	 0.426122456789017 
1563	 0.426511496305466 
1564	 0.426980197429657 
1565	 0.427436202764511 
1566	 0.427917003631592 
1567	 0.428414314985275 
1568	 0.42890077829361 
1569	 0.429373294115067 
1570	 0.429850190877914 
1571	 0.43034091591835 
1572	 0.430819481611252 
1573	 0.431263238191605 
1574	 0.43176394701004 
1575	 0.432302683591843 
1576	 0.432801693677902 
1577	 0.433322817087173 
1578	 0.433819204568863 
1579	 0.434251606464386 
1580	 0.434772610664368 
1581	 0.435347884893417 
1582	 0.43586340546608 
1583	 0.436400562524796 
1584	 0.436907798051834 
1585	 0.437361389398575 
1586	 0.437868297100067 
1587	 0.4383864402771 
1588	 0.438910305500031 
1589	 0.439461350440979 
1590	 0.439970076084137 
1591	 0.440468221902847 
1592	 0.440985321998596 
1593	 0.441469877958298 
1594	 0.442006528377533 
1595	 0.44259375333786 
1596	 0.443153083324432 
1597	 0.443730682134628 
1598	 0.444267064332962 
1599	 0.44477903842926 
1600	 0.445295870304108 
1601	 0.445791512727737 
1602	 0.44629767537117 
1603	 0.446804404258728 
1604	 0.447303235530853 
1605	 0.447803288698196 
1606	 0.448310077190399 
1607	 0.448811501264572 
1608	 0.449325799942017 
1609	 0.449851214885712 
1610	 0.450354486703873 
1611	 0.450861215591431 
1612	 0.451356768608093 
1613	 0.451842546463013 
1614	 0.452312648296356 
1615	 0.452731907367706 
1616	 0.453245371580124 
1617	 0.453797221183777 
1618	 0.45433509349823 
1619	 0.454956233501434 
1620	 0.455490231513977 
1621	 0.455950975418091 
1622	 0.456459045410156 
1623	 0.456976056098938 
1624	 0.45746123790741 
1625	 0.457946062088013 
1626	 0.458414673805237 
1627	 0.458849400281906 
1628	 0.459296375513077 
1629	 0.459749042987823 
1630	 0.460194170475006 
1631	 0.460617899894714 
1632	 0.461065739393234 
1633	 0.461549431085587 
1634	 0.46196922659874 
1635	 0.462366789579391 
1636	 0.462772637605667 
1637	 0.463122069835663 
1638	 0.463535398244858 
1639	 0.463994950056076 
1640	 0.464433819055557 
1641	 0.464880973100662 
1642	 0.465330362319946 
1643	 0.465770810842514 
1644	 0.466223776340485 
1645	 0.466714143753052 
1646	 0.467167794704437 
1647	 0.467601031064987 
1648	 0.468028426170349 
1649	 0.468443959951401 
1650	 0.4688441157341 
1651	 0.469217389822006 
1652	 0.469642460346222 
1653	 0.470087081193924 
1654	 0.47050204873085 
1655	 0.470950603485107 
1656	 0.471350342035294 
1657	 0.471683919429779 
1658	 0.472059160470963 
1659	 0.472435057163239 
1660	 0.472837567329407 
1661	 0.473285138607025 
1662	 0.473666399717331 
1663	 0.474034935235977 
1664	 0.474385380744934 
1665	 0.474681496620178 
1666	 0.475052237510681 
1667	 0.475400984287262 
1668	 0.475782752037048 
1669	 0.47613599896431 
1670	 0.476480931043625 
1671	 0.476882547140121 
1672	 0.477275729179382 
1673	 0.477682441473007 
1674	 0.478046178817749 
1675	 0.478326618671417 
1676	 0.478648364543915 
1677	 0.479024797677994 
1678	 0.47938597202301 
1679	 0.479768335819244 
1680	 0.480106443166733 
1681	 0.480373203754425 
1682	 0.480716168880463 
1683	 0.48112279176712 
1684	 0.481544584035873 
1685	 0.481947422027588 
1686	 0.48233824968338 
1687	 0.482736974954605 
1688	 0.48311772942543 
1689	 0.483517736196518 
1690	 0.483833998441696 
1691	 0.48405921459198 
1692	 0.484325706958771 
1693	 0.484602779150009 
1694	 0.484910219907761 
1695	 0.4852494597435 
1696	 0.485574632883072 
1697	 0.485943108797073 
1698	 0.486317932605743 
1699	 0.486666828393936 
1700	 0.486957609653473 
1701	 0.487169146537781 
1702	 0.487410694360733 
1703	 0.487705618143082 
1704	 0.488040387630463 
1705	 0.488387554883957 
1706	 0.488696128129959 
1707	 0.488980799913406 
1708	 0.489258199930191 
1709	 0.489554017782211 
1710	 0.489865213632584 
1711	 0.490162014961243 
1712	 0.490462213754654 
1713	 0.490758985280991 
1714	 0.491019487380981 
1715	 0.491243690252304 
1716	 0.491478741168976 
1717	 0.491703182458878 
1718	 0.491899013519287 
1719	 0.492155194282532 
1720	 0.492423474788666 
1721	 0.49267041683197 
1722	 0.492946714162827 
1723	 0.493205666542053 
1724	 0.493420839309692 
1725	 0.493621289730072 
1726	 0.493768900632858 
1727	 0.493937373161316 
1728	 0.494124174118042 
1729	 0.494277060031891 
1730	 0.49442857503891 
1731	 0.494558095932007 
1732	 0.494639337062836 
1733	 0.494728952646255 
1734	 0.49483323097229 
1735	 0.494925320148468 
1736	 0.494975805282593 
1737	 0.495152741670609 
1738	 0.495251625776291 
1739	 0.495399653911591 
1740	 0.495564997196198 
1741	 0.495664060115814 
1742	 0.495816320180893 
1743	 0.495914876461029 
1744	 0.496002405881882 
1745	 0.496116578578949 
1746	 0.496173590421677 
1747	 0.49629619717598 
1748	 0.496419489383698 
1749	 0.496478080749512 
1750	 0.496525883674622 
1751	 0.496519953012466 
1752	 0.49653497338295 
1753	 0.49662110209465 
1754	 0.496694415807724 
1755	 0.496762484312058 
1756	 0.496848165988922 
1757	 0.49687659740448 
1758	 0.496904581785202 
1759	 0.49694699048996 
1760	 0.49697470664978 
1761	 0.497068971395493 
1762	 0.497175097465515 
1763	 0.497278690338135 
1764	 0.497396171092987 
1765	 0.497444480657578 
1766	 0.497465938329697 
1767	 0.497532278299332 
1768	 0.497594714164734 
1769	 0.497639417648315 
1770	 0.497712165117264 
1771	 0.497773200273514 
1772	 0.497807562351227 
1773	 0.497852325439453 
1774	 0.497846305370331 
1775	 0.497799158096313 
1776	 0.497792333364487 
1777	 0.497738122940063 
1778	 0.497802168130875 
1779	 0.497822195291519 
1780	 0.497837781906128 
1781	 0.497934579849243 
1782	 0.49797397851944 
1783	 0.498019903898239 
1784	 0.498056799173355 
1785	 0.498013287782669 
1786	 0.497985422611237 
1787	 0.497952491044998 
1788	 0.49789360165596 
1789	 0.49788761138916 
1790	 0.497885763645172 
1791	 0.497870475053787 
1792	 0.497872054576874 
1793	 0.497820347547531 
1794	 0.497790694236755 
1795	 0.497836917638779 
1796	 0.497868061065674 
1797	 0.497890383005142 
1798	 0.497919470071793 
1799	 0.497900992631912 
1800	 0.497869312763214 
1801	 0.497921645641327 
1802	 0.497943580150604 
1803	 0.497896641492844 
1804	 0.497871071100235 
1805	 0.497785270214081 
1806	 0.497688144445419 
1807	 0.497656881809235 
1808	 0.497638672590256 
1809	 0.497582286596298 
1810	 0.497520536184311 
1811	 0.497337967157364 
1812	 0.497176557779312 
1813	 0.497029006481171 
1814	 0.496864348649979 
1815	 0.496782779693604 
1816	 0.49678510427475 
1817	 0.496707737445831 
1818	 0.496632426977158 
1819	 0.496561229228973 
1820	 0.496438980102539 
1821	 0.496372550725937 
1822	 0.496341794729233 
1823	 0.496276378631592 
1824	 0.496185004711151 
1825	 0.496032327413559 
1826	 0.495827436447144 
1827	 0.495654702186584 
1828	 0.495517820119858 
1829	 0.495456963777542 
1830	 0.495386481285095 
1831	 0.509929955005646 
1832	 0.509777307510376 
1833	 0.509570181369781 
1834	 0.509291291236877 
1835	 0.509000718593597 
1836	 0.508742570877075 
1837	 0.508409380912781 
1838	 0.508027136325836 
1839	 0.507566392421722 
1840	 0.507080554962158 
1841	 0.506633937358856 
1842	 0.506100356578827 
1843	 0.505472660064697 
1844	 0.504896938800812 
1845	 0.504331409931183 
1846	 0.503708362579346 
1847	 0.503039002418518 
1848	 0.502450525760651 
1849	 0.501819372177124 
1850	 0.501075387001038 
1851	 0.500315845012665 
1852	 0.499578863382339 
1853	 0.49882099032402 
1854	 0.497995942831039 
1855	 0.497155100107193 
1856	 0.496310323476791 
1857	 0.49542897939682 
1858	 0.494490832090378 
1859	 0.493554800748825 
1860	 0.492630451917648 
1861	 0.491673231124878 
1862	 0.490669339895248 
1863	 0.489719271659851 
1864	 0.488706737756729 
1865	 0.487566828727722 
1866	 0.486365884542465 
1867	 0.485109448432922 
1868	 0.483661711215973 
1869	 0.482278048992157 
1870	 0.480961561203003 
1871	 0.479382783174515 
1872	 0.477691441774368 
1873	 0.475859940052032 
1874	 0.473866194486618 
1875	 0.471829831600189 
1876	 0.469820350408554 
1877	 0.467788249254227 
1878	 0.465759098529816 
1879	 0.463585317134857 
1880	 0.461298048496246 
1881	 0.458978414535522 
1882	 0.456607550382614 
1883	 0.454048544168472 
1884	 0.451509475708008 
1885	 0.449067711830139 
1886	 0.44638928771019 
1887	 0.443657964468002 
1888	 0.44084370136261 
1889	 0.438011735677719 
1890	 0.434856325387955 
1891	 0.431688964366913 
1892	 0.428504139184952 
1893	 0.425104171037674 
1894	 0.421744138002396 
1895	 0.418381214141846 
1896	 0.415002286434174 
1897	 0.411630213260651 
1898	 0.408282399177551 
1899	 0.40507373213768 
1900	 0.40189403295517 
1901	 0.398840665817261 
1902	 0.396082520484924 
1903	 0.39356929063797 
1904	 0.391328811645508 
1905	 0.389302462339401 
1906	 0.387486755847931 
1907	 0.385976523160934 
1908	 0.384716391563416 
1909	 0.383621633052826 
1910	 0.382722556591034 
1911	 0.382025986909866 
1912	 0.381522655487061 
1913	 0.381252825260162 
1914	 0.381193250417709 
1915	 0.38123631477356 
1916	 0.381313234567642 
1917	 0.381445437669754 
1918	 0.381659626960754 
1919	 0.38194528222084 
1920	 0.38230437040329 
1921	 0.382552474737167 
1922	 0.382833391427994 
1923	 0.383055359125137 
1924	 0.383429765701294 
1925	 0.383708357810974 
1926	 0.383953005075455 
1927	 0.3843132853508 
1928	 0.384500771760941 
1929	 0.384668439626694 
1930	 0.385008037090302 
1931	 0.385289281606674 
1932	 0.385511964559555 
1933	 0.385741323232651 
1934	 0.386003881692886 
1935	 0.386197686195374 
1936	 0.386340647935867 
1937	 0.386560022830963 
1938	 0.386712431907654 
1939	 0.386842906475067 
1940	 0.387086123228073 
1941	 0.387199640274048 
1942	 0.387273848056793 
1943	 0.387424945831299 
1944	 0.387510627508163 
1945	 0.387477576732636 
1946	 0.387541145086288 
1947	 0.387653887271881 
1948	 0.387726366519928 
1949	 0.387783795595169 
1950	 0.387894749641418 
1951	 0.388026803731918 
1952	 0.388178765773773 
1953	 0.388366848230362 
1954	 0.388584941625595 
1955	 0.388820856809616 
1956	 0.389077723026276 
1957	 0.389318853616714 
1958	 0.389612287282944 
1959	 0.38985612988472 
1960	 0.390076607465744 
1961	 0.390225648880005 
1962	 0.390441954135895 
1963	 0.390621572732925 
1964	 0.39075368642807 
1965	 0.390977501869202 
1966	 0.391182482242584 
1967	 0.391325294971466 
1968	 0.39149808883667 
1969	 0.3917036652565 
1970	 0.391865611076355 
1971	 0.391977667808533 
1972	 0.392150551080704 
1973	 0.392363160848618 
1974	 0.392519861459732 
1975	 0.392678707838058 
1976	 0.392838627099991 
1977	 0.392891377210617 
1978	 0.392922222614288 
1979	 0.39304056763649 
1980	 0.393214672803879 
1981	 0.393397450447083 
1982	 0.393637359142303 
1983	 0.393903225660324 
1984	 0.39414381980896 
1985	 0.394463449716568 
1986	 0.394882351160049 
1987	 0.395294398069382 
1988	 0.395642936229706 
1989	 0.396040827035904 
1990	 0.396410644054413 
1991	 0.396754443645477 
1992	 0.397220999002457 
1993	 0.397728383541107 
1994	 0.398225456476212 
1995	 0.398723810911179 
1996	 0.399287700653076 
1997	 0.399886250495911 
1998	 0.400496453046799 
1999	 0.401128798723221 
2000	 0.401835888624191 
2001	 0.402576953172684 
2002	 0.403304308652878 
2003	 0.404079794883728 
2004	 0.404889792203903 
2005	 0.405683279037476 
2006	 0.406485825777054 
2007	 0.40736523270607 
2008	 0.408326745033264 
2009	 0.409285753965378 
2010	 0.410290628671646 
2011	 0.411312490701675 
2012	 0.41239869594574 
2013	 0.413373202085495 
2014	 0.414393246173859 
2015	 0.415466755628586 
2016	 0.416537016630173 
2017	 0.417726784944534 
2018	 0.418996453285217 
2019	 0.420258343219757 
2020	 0.421522289514542 
2021	 0.422811627388 
2022	 0.42408961057663 
2023	 0.425388276576996 
2024	 0.426629036664963 
2025	 0.427782207727432 
2026	 0.429062217473984 
2027	 0.430400222539902 
2028	 0.431695640087128 
2029	 0.433022230863571 
2030	 0.434310466051102 
2031	 0.435476899147034 
2032	 0.436717361211777 
2033	 0.437963992357254 
2034	 0.439205139875412 
2035	 0.440420240163803 
2036	 0.441554486751556 
2037	 0.442757427692413 
2038	 0.444091767072678 
2039	 0.445220708847046 
2040	 0.446233153343201 
2041	 0.447294294834137 
2042	 0.448275983333588 
2043	 0.449237644672394 
2044	 0.450206458568573 
2045	 0.451210737228394 
2046	 0.452161222696304 
2047	 0.453029125928879 
2048	 0.453922271728516 
2049	 0.454868048429489 
2050	 0.455749690532684 
2051	 0.456553310155869 
2052	 0.457365751266479 
2053	 0.45818504691124 
2054	 0.458992898464203 
2055	 0.459775358438492 
2056	 0.460562318563461 
2057	 0.461400538682938 
2058	 0.462095528841019 
2059	 0.462806344032288 
2060	 0.463578075170517 
2061	 0.464246064424515 
2062	 0.46487233042717 
2063	 0.465470343828201 
2064	 0.466038405895233 
2065	 0.466568201780319 
2066	 0.467059969902039 
2067	 0.467541664838791 
2068	 0.467962712049484 
2069	 0.468433856964111 
2070	 0.468891322612762 
2071	 0.469399958848953 
2072	 0.469996690750122 
2073	 0.470520585775375 
2074	 0.470915406942368 
2075	 0.471386432647705 
2076	 0.471800118684769 
2077	 0.47202330827713 
2078	 0.472296893596649 
2079	 0.472669631242752 
2080	 0.472986578941345 
2081	 0.473293304443359 
2082	 0.473559111356735 
2083	 0.473823130130768 
2084	 0.474009871482849 
2085	 0.474133878946304 
2086	 0.47424528002739 
2087	 0.474345415830612 
2088	 0.474392682313919 
2089	 0.474410146474838 
2090	 0.474322438240051 
2091	 0.474295407533646 
2092	 0.474200367927551 
2093	 0.474048584699631 
2094	 0.473887115716934 
2095	 0.473618119955063 
2096	 0.473374277353287 
2097	 0.473146796226501 
2098	 0.472953289747238 
2099	 0.472696483135223 
2100	 0.472398221492767 
2101	 0.472126245498657 
2102	 0.471826553344727 
2103	 0.471593409776688 
2104	 0.47144216299057 
2105	 0.471203446388245 
2106	 0.470907628536224 
2107	 0.470660269260406 
2108	 0.47046422958374 
2109	 0.470352292060852 
2110	 0.470214456319809 
2111	 0.469899445772171 
2112	 0.469580173492432 
2113	 0.469346582889557 
2114	 0.469169139862061 
2115	 0.469129264354706 
2116	 0.469071835279465 
2117	 0.468993753194809 
2118	 0.468988567590714 
2119	 0.469112485647202 
2120	 0.469162791967392 
2121	 0.469164192676544 
2122	 0.469247967004776 
2123	 0.469444304704666 
2124	 0.469490557909012 
2125	 0.469511836767197 
2126	 0.469510465860367 
2127	 0.46948716044426 
2128	 0.469371348619461 
2129	 0.469319313764572 
2130	 0.469302475452423 
2131	 0.469144105911255 
2132	 0.469017922878265 
2133	 0.468920797109604 
2134	 0.468896746635437 
2135	 0.468733549118042 
2136	 0.468586176633835 
2137	 0.468318402767181 
2138	 0.467948079109192 
2139	 0.46750396490097 
2140	 0.466968655586243 
2141	 0.466381341218948 
2142	 0.465706467628479 
2143	 0.464987009763718 
2144	 0.464310199022293 
2145	 0.463407278060913 
2146	 0.462361305952072 
2147	 0.461226254701614 
2148	 0.459995806217194 
2149	 0.458882004022598 
2150	 0.4577516913414 
2151	 0.456574201583862 
2152	 0.455404013395309 
2153	 0.454157501459122 
2154	 0.452987343072891 
2155	 0.451904743909836 
2156	 0.450739741325378 
2157	 0.449523061513901 
2158	 0.448405832052231 
2159	 0.447170525789261 
2160	 0.446167290210724 
2161	 0.445379942655563 
2162	 0.444565057754517 
2163	 0.443863719701767 
2164	 0.443207085132599 
2165	 0.442347049713135 
2166	 0.441529005765915 
2167	 0.440725833177567 
2168	 0.439917266368866 
2169	 0.439291268587112 
2170	 0.438600361347198 
2171	 0.43791276216507 
2172	 0.437265694141388 
2173	 0.436510860919952 
2174	 0.435701370239258 
2175	 0.434925585985184 
2176	 0.434112757444382 
2177	 0.433247894048691 
2178	 0.432385802268982 
2179	 0.431453227996826 
2180	 0.430532872676849 
2181	 0.429401189088821 
2182	 0.428149521350861 
2183	 0.426850020885468 
2184	 0.425324827432632 
2185	 0.423820048570633 
2186	 0.42231884598732 
2187	 0.420796811580658 
2188	 0.41900372505188 
2189	 0.417246997356415 
2190	 0.415463268756866 
2191	 0.413573235273361 
2192	 0.41187047958374 
2193	 0.41012704372406 
2194	 0.40829274058342 
2195	 0.406477779150009 
2196	 0.40467381477356 
2197	 0.402888029813766 
2198	 0.401014387607574 
2199	 0.399252027273178 
2200	 0.397176951169968 
2201	 0.394838958978653 
2202	 0.392544388771057 
2203	 0.390029698610306 
2204	 0.387640208005905 
2205	 0.385149419307709 
2206	 0.382956683635712 
2207	 0.380626529455185 
2208	 0.37897127866745 
2209	 0.377713680267334 
2210	 0.376885980367661 
2211	 0.376553744077683 
2212	 0.376663237810135 
2213	 0.377119392156601 
2214	 0.3776875436306 
2215	 0.378154754638672 
2216	 0.37855538725853 
2217	 0.378852158784866 
2218	 0.378750175237656 
2219	 0.378503143787384 
2220	 0.377928227186203 
2221	 0.376803636550903 
2222	 0.37543997168541 
2223	 0.373930186033249 
2224	 0.37216329574585 
2225	 0.370262086391449 
2226	 0.368169903755188 
2227	 0.365904003381729 
2228	 0.363424122333527 
2229	 0.360856115818024 
2230	 0.358107358217239 
2231	 0.355289101600647 
2232	 0.352371126413345 
2233	 0.349306702613831 
2234	 0.345982581377029 
2235	 0.342799633741379 
2236	 0.339636862277985 
2237	 0.336345553398132 
2238	 0.332982689142227 
2239	 0.329705238342285 
2240	 0.326406180858612 
2241	 0.323114693164825 
2242	 0.320073485374451 
2243	 0.317311704158783 
2244	 0.314709931612015 
2245	 0.312385231256485 
2246	 0.310304284095764 
2247	 0.308532387018204 
2248	 0.307063758373261 
2249	 0.305825293064117 
2250	 0.305081278085709 
2251	 0.304718464612961 
2252	 0.304499745368958 
2253	 0.304622411727905 
2254	 0.304872334003448 
2255	 0.305220931768417 
2256	 0.305952548980713 
2257	 0.307186394929886 
2258	 0.308184027671814 
2259	 0.309347659349442 
2260	 0.310497879981995 
2261	 0.311582803726196 
2262	 0.312651872634888 
2263	 0.313928872346878 
2264	 0.314953774213791 
2265	 0.315849423408508 
2266	 0.316615253686905 
2267	 0.31721818447113 
2268	 0.317744553089142 
2269	 0.318101435899735 
2270	 0.318442016839981 
2271	 0.318714618682861 
2272	 0.319055587053299 
2273	 0.31902939081192 
2274	 0.318775951862335 
2275	 0.31851664185524 
2276	 0.318057656288147 
2277	 0.317564725875854 
2278	 0.317082852125168 
2279	 0.316300243139267 
2280	 0.315065115690231 
2281	 0.313740611076355 
2282	 0.312368601560593 
2283	 0.310734570026398 
2284	 0.309030532836914 
2285	 0.307239264249802 
2286	 0.30523669719696 
2287	 0.303164660930634 
2288	 0.301145642995834 
2289	 0.299214273691177 
2290	 0.297249466180801 
2291	 0.295433968305588 
2292	 0.293682932853699 
2293	 0.292116910219193 
2294	 0.290707647800446 
2295	 0.289367854595184 
2296	 0.288136541843414 
2297	 0.287052750587463 
2298	 0.28612020611763 
2299	 0.285205483436584 
2300	 0.284525692462921 
2301	 0.283636301755905 
2302	 0.282647788524628 
2303	 0.281753987073898 
2304	 0.280988544225693 
2305	 0.279891848564148 
2306	 0.278632164001465 
2307	 0.27742126584053 
2308	 0.275861144065857 
2309	 0.274535357952118 
2310	 0.273533582687378 
2311	 0.272332459688187 
2312	 0.270976185798645 
2313	 0.269768059253693 
2314	 0.268572449684143 
2315	 0.267358988523483 
2316	 0.266086727380753 
2317	 0.265128046274185 
2318	 0.264067411422729 
2319	 0.263082027435303 
2320	 0.262426644563675 
2321	 0.261801838874817 
2322	 0.261262714862823 
2323	 0.260894238948822 
2324	 0.260428488254547 
2325	 0.26002299785614 
2326	 0.25978097319603 
2327	 0.259497284889221 
2328	 0.259418934583664 
2329	 0.259450435638428 
2330	 0.259448200464249 
2331	 0.259518653154373 
2332	 0.25942000746727 
2333	 0.259446352720261 
2334	 0.259634703397751 
2335	 0.259647041559219 
2336	 0.259852111339569 
2337	 0.260071784257889 
2338	 0.260154455900192 
2339	 0.260494530200958 
2340	 0.260735809803009 
2341	 0.260969638824463 
2342	 0.261415809392929 
2343	 0.261892378330231 
2344	 0.262560367584229 
2345	 0.263052493333817 
2346	 0.263422757387161 
2347	 0.263966172933578 
2348	 0.264409065246582 
2349	 0.265108466148376 
2350	 0.265906572341919 
2351	 0.266890168190002 
2352	 0.267668068408966 
2353	 0.268479615449905 
2354	 0.269344806671143 
2355	 0.27015820145607 
2356	 0.270975768566132 
2357	 0.271879732608795 
2358	 0.272810250520706 
2359	 0.273685783147812 
2360	 0.274556696414948 
2361	 0.275570541620255 
2362	 0.276484489440918 
2363	 0.277131944894791 
2364	 0.278032690286636 
2365	 0.279213279485703 
2366	 0.280163943767548 
2367	 0.28101322054863 
2368	 0.282027125358582 
2369	 0.283060252666473 
2370	 0.283876299858093 
2371	 0.284844905138016 
2372	 0.28563004732132 
2373	 0.286103308200836 
2374	 0.286595582962036 
2375	 0.287153720855713 
2376	 0.287379175424576 
2377	 0.287251174449921 
2378	 0.287414461374283 
2379	 0.287573575973511 
2380	 0.287591159343719 
2381	 0.287663638591766 
2382	 0.287654519081116 
2383	 0.287386000156403 
2384	 0.287367671728134 
2385	 0.28762423992157 
2386	 0.287577539682388 
2387	 0.287349194288254 
2388	 0.28721222281456 
2389	 0.286931067705154 
2390	 0.286880820989609 
2391	 0.287098944187164 
2392	 0.287119448184967 
2393	 0.28692889213562 
2394	 0.287132173776627 
2395	 0.287478417158127 
2396	 0.287837386131287 
2397	 0.288657039403915 
2398	 0.289065539836884 
2399	 0.289102524518967 
2400	 0.289458155632019 
2401	 0.289810925722122 
2402	 0.290208488702774 
2403	 0.290896952152252 
2404	 0.291263043880463 
2405	 0.2913718521595 
2406	 0.291817307472229 
2407	 0.292384028434753 
2408	 0.292684316635132 
2409	 0.293082058429718 
2410	 0.293330252170563 
2411	 0.293214827775955 
2412	 0.293224275112152 
2413	 0.293493092060089 
2414	 0.293402314186096 
2415	 0.292937397956848 
2416	 0.292664706707001 
2417	 0.292384058237076 
2418	 0.292009621858597 
2419	 0.291637629270554 
2420	 0.291267812252045 
2421	 0.290996909141541 
2422	 0.290211588144302 
2423	 0.288944721221924 
2424	 0.288238346576691 
2425	 0.287405073642731 
2426	 0.286735385656357 
2427	 0.286619931459427 
2428	 0.286227226257324 
2429	 0.28571280837059 
2430	 0.285025328397751 
2431	 0.284399390220642 
2432	 0.283502578735352 
2433	 0.281983017921448 
2434	 0.281099110841751 
2435	 0.280536502599716 
2436	 0.279781311750412 
2437	 0.279105007648468 
2438	 0.278584271669388 
2439	 0.278210312128067 
2440	 0.277440369129181 
2441	 0.276781767606735 
2442	 0.275816738605499 
2443	 0.273956954479218 
2444	 0.273284405469894 
2445	 0.273345708847046 
2446	 0.272777259349823 
2447	 0.272558361291885 
2448	 0.271781176328659 
2449	 0.270200937986374 
2450	 0.269480675458908 
2451	 0.26920622587204 
2452	 0.268476992845535 
2453	 0.267798870801926 
2454	 0.266663372516632 
2455	 0.265530467033386 
2456	 0.265099078416824 
2457	 0.265210688114166 
2458	 0.26523619890213 
2459	 0.264919996261597 
2460	 0.263327747583389 
2461	 0.261770009994507 
2462	 0.260830760002136 
2463	 0.259965896606445 
2464	 0.260205984115601 
2465	 0.259911328554153 
2466	 0.258928120136261 
2467	 0.258407831192017 
2468	 0.258174777030945 
2469	 0.257691293954849 
2470	 0.257370412349701 
2471	 0.256977647542953 
2472	 0.255874693393707 
2473	 0.255535542964935 
2474	 0.256268680095673 
2475	 0.256095767021179 
2476	 0.255452424287796 
2477	 0.25538158416748 
2478	 0.255216598510742 
2479	 0.254827409982681 
2480	 0.255119800567627 
2481	 0.25484311580658 
2482	 0.253447324037552 
2483	 0.252762854099274 
2484	 0.252370715141296 
2485	 0.252071797847748 
2486	 0.252091109752655 
2487	 0.251953065395355 
2488	 0.252005994319916 
2489	 0.25174555182457 
2490	 0.250994503498077 
2491	 0.250881493091583 
2492	 0.251129537820816 
2493	 0.250951647758484 
2494	 0.25107330083847 
2495	 0.250776767730713 
2496	 0.249886065721512 
2497	 0.249113008379936 
2498	 0.247884497046471 
2499	 0.247933253645897 
2500	 0.248596012592316 
