
Text conversion of header file \A_MEDIDAS\PROJETOS\BRASIL\BLOCO GAVIAO\JACOBINA\CANIF27\sco\CANIF27_033.20_00005.asd.ref
 -------------------------------------------------------------
                                                                                                                                                            
The instrument number was  16586/1
New ASD spectrum file: Program version = 6.00 file version = 1.00
Spectrum saved: 10/16/2018 at 10:25:32
VNIR integration time : 34
VNIR channel 1 wavelength = 350 wavelength step = 1
There were 50 samples per data value
xmin = 350 xmax= 2500
ymin= 0 ymax= 1.25
The instrument digitizes spectral values to 16 bits
SWIR1 gain was 203 offset was 2094
SWIR2 gain was 499 offset was 2264
Join between VNIR and SWIR1 was 1000 nm
Join between SWIR1 and SWIR2 was 1830 nm
Absolute Reflectance is Enabled
The Absolute Reflectance File is abs165861.ref
VNIR dark signal subtracted
50 dark measurements taken Tue Oct 16 10:13:56 2018
DCC value was 0
Data is compared to a white reference:
60 white reference measurements taken Tue Oct 16 10:14:04 2018
There was no foreoptic attached
Spectrum file is reflectance data
GPS-Latitude is S0
GPS-Longitude is E0
GPS-Altitude is 0
GPS-UTC is Wed Dec 31 17:00:00 1969

Smart Detector
Serial#  0
Signal (A)  0.000E00
Dark (A)  0.000E00
Ref (A)  0.000E00
Status  0 - Uninitialized
Gain  E-4
Averaging  0
Temp (C)  0.0
Humid (%)  0.0

Reflectance Absolute
Wavelength	CANIF27_33.20_00005.asd.ref
350	 0.233540043234825 
351	 0.222246393561363 
352	 0.224283635616302 
353	 0.230998858809471 
354	 0.231377437710762 
355	 0.22309872508049 
356	 0.222790628671646 
357	 0.225033536553383 
358	 0.221028208732605 
359	 0.222353935241699 
360	 0.225741073489189 
361	 0.227309063076973 
362	 0.224264875054359 
363	 0.223021224141121 
364	 0.225050419569016 
365	 0.227209344506264 
366	 0.221095740795135 
367	 0.221944883465767 
368	 0.225056990981102 
369	 0.224727019667625 
370	 0.226943299174309 
371	 0.225125163793564 
372	 0.222031384706497 
373	 0.223331943154335 
374	 0.223884344100952 
375	 0.224125653505325 
376	 0.224007904529572 
377	 0.22258423268795 
378	 0.220751509070396 
379	 0.219784036278725 
380	 0.220124617218971 
381	 0.220493510365486 
382	 0.220199450850487 
383	 0.22052176296711 
384	 0.22232922911644 
385	 0.220086440443993 
386	 0.218374222517014 
387	 0.218422561883926 
388	 0.218092501163483 
389	 0.219618037343025 
390	 0.220451027154922 
391	 0.219398885965347 
392	 0.219332307577133 
393	 0.220185682177544 
394	 0.220226183533669 
395	 0.218271285295486 
396	 0.218380942940712 
397	 0.218813240528107 
398	 0.219235748052597 
399	 0.22035276889801 
400	 0.219239965081215 
401	 0.218477919697762 
402	 0.219484254717827 
403	 0.220407947897911 
404	 0.219883233308792 
405	 0.219285473227501 
406	 0.21991340816021 
407	 0.218993559479713 
408	 0.218902617692947 
409	 0.219163402915001 
410	 0.21774922311306 
411	 0.218832418322563 
412	 0.219610169529915 
413	 0.21856415271759 
414	 0.217415317893028 
415	 0.218120649456978 
416	 0.218791708350182 
417	 0.217756509780884 
418	 0.218325018882751 
419	 0.218648165464401 
420	 0.218500435352325 
421	 0.218638673424721 
422	 0.218118339776993 
423	 0.218086943030357 
424	 0.218636393547058 
425	 0.217953011393547 
426	 0.217968925833702 
427	 0.218113020062447 
428	 0.21769317984581 
429	 0.218000084161758 
430	 0.218301996588707 
431	 0.218337088823318 
432	 0.218230456113815 
433	 0.218547523021698 
434	 0.218997001647949 
435	 0.219307571649551 
436	 0.219399154186249 
437	 0.219338774681091 
438	 0.219526216387749 
439	 0.220089688897133 
440	 0.21987783908844 
441	 0.219876974821091 
442	 0.220161691308022 
443	 0.220198392868042 
444	 0.219975039362907 
445	 0.219989404082298 
446	 0.220271572470665 
447	 0.219963312149048 
448	 0.220226168632507 
449	 0.220595300197601 
450	 0.220435559749603 
451	 0.220435380935669 
452	 0.220361977815628 
453	 0.220253154635429 
454	 0.220327839255333 
455	 0.220224246382713 
456	 0.220041453838348 
457	 0.219881281256676 
458	 0.219705894589424 
459	 0.219675555825233 
460	 0.219646826386452 
461	 0.219465807080269 
462	 0.219453349709511 
463	 0.219439059495926 
464	 0.219310760498047 
465	 0.219046100974083 
466	 0.218896776437759 
467	 0.218825727701187 
468	 0.218788683414459 
469	 0.218869015574455 
470	 0.218927830457687 
471	 0.218869864940643 
472	 0.21869558095932 
473	 0.218830928206444 
474	 0.218859359622002 
475	 0.218691736459732 
476	 0.218649849295616 
477	 0.218938261270523 
478	 0.219152539968491 
479	 0.219032943248749 
480	 0.219074591994286 
481	 0.21918523311615 
482	 0.219300985336304 
483	 0.219384580850601 
484	 0.219559207558632 
485	 0.219778642058372 
486	 0.219966024160385 
487	 0.220027893781662 
488	 0.220195069909096 
489	 0.220403626561165 
490	 0.220550581812859 
491	 0.220659196376801 
492	 0.220943808555603 
493	 0.221329882740974 
494	 0.221571579575539 
495	 0.221746042370796 
496	 0.221927925944328 
497	 0.222113832831383 
498	 0.222159206867218 
499	 0.222353428602219 
500	 0.222593784332275 
501	 0.222733080387115 
502	 0.223001748323441 
503	 0.223257601261139 
504	 0.223452404141426 
505	 0.223626151680946 
506	 0.223818257451057 
507	 0.223889857530594 
508	 0.223866954445839 
509	 0.224197208881378 
510	 0.224518403410912 
511	 0.224684998393059 
512	 0.224691331386566 
513	 0.224828079342842 
514	 0.224973142147064 
515	 0.22506020963192 
516	 0.22511100769043 
517	 0.225241661071777 
518	 0.22532294690609 
519	 0.225306570529938 
520	 0.225494995713234 
521	 0.225700095295906 
522	 0.225822106003761 
523	 0.225828036665916 
524	 0.225835606455803 
525	 0.225838392972946 
526	 0.22586353123188 
527	 0.22599846124649 
528	 0.225977584719658 
529	 0.225891545414925 
530	 0.225865706801414 
531	 0.225820139050484 
532	 0.225706055760384 
533	 0.225567221641541 
534	 0.225487753748894 
535	 0.225293502211571 
536	 0.22518453001976 
537	 0.225207537412643 
538	 0.225067600607872 
539	 0.225007221102715 
540	 0.224977657198906 
541	 0.224852174520493 
542	 0.224565058946609 
543	 0.22433939576149 
544	 0.224209904670715 
545	 0.224047005176544 
546	 0.223908662796021 
547	 0.22371032834053 
548	 0.223447903990746 
549	 0.223355203866959 
550	 0.223185509443283 
551	 0.222886323928833 
552	 0.222506314516068 
553	 0.22218444943428 
554	 0.221881881356239 
555	 0.221667677164078 
556	 0.221729442477226 
557	 0.221700295805931 
558	 0.221525594592094 
559	 0.221216470003128 
560	 0.220718964934349 
561	 0.220269367098808 
562	 0.219934910535812 
563	 0.219667628407478 
564	 0.21930980682373 
565	 0.218962982296944 
566	 0.218710497021675 
567	 0.218572422862053 
568	 0.21858873963356 
569	 0.218592077493668 
570	 0.21837155520916 
571	 0.2177844196558 
572	 0.216992229223251 
573	 0.216072455048561 
574	 0.215072944760323 
575	 0.214402556419373 
576	 0.213905453681946 
577	 0.213439762592316 
578	 0.213059484958649 
579	 0.212565571069717 
580	 0.211853340268135 
581	 0.210929289460182 
582	 0.210058391094208 
583	 0.20934870839119 
584	 0.208913743495941 
585	 0.208854675292969 
586	 0.209096848964691 
587	 0.209167882800102 
588	 0.208799749612808 
589	 0.208302825689316 
590	 0.20767879486084 
591	 0.207049921154976 
592	 0.206554785370827 
593	 0.206220403313637 
594	 0.205986201763153 
595	 0.205736085772514 
596	 0.205309435725212 
597	 0.204764351248741 
598	 0.20418344438076 
599	 0.203665137290955 
600	 0.20333893597126 
601	 0.203124284744263 
602	 0.202950850129128 
603	 0.202754840254784 
604	 0.202539518475533 
605	 0.202193394303322 
606	 0.201722919940948 
607	 0.201283261179924 
608	 0.200996845960617 
609	 0.200818866491318 
610	 0.200669705867767 
611	 0.200530663132668 
612	 0.200414463877678 
613	 0.200316786766052 
614	 0.200213700532913 
615	 0.19999872148037 
616	 0.199825569987297 
617	 0.199729204177856 
618	 0.199513405561447 
619	 0.199371635913849 
620	 0.199248149991035 
621	 0.199064806103706 
622	 0.198931470513344 
623	 0.198822259902954 
624	 0.198737174272537 
625	 0.19869077205658 
626	 0.198630303144455 
627	 0.198583006858826 
628	 0.198560699820518 
629	 0.19852776825428 
630	 0.198532074689865 
631	 0.198542863130569 
632	 0.198531448841095 
633	 0.198587983846664 
634	 0.198656499385834 
635	 0.198710411787033 
636	 0.198754280805588 
637	 0.198827654123306 
638	 0.198924392461777 
639	 0.199023619294167 
640	 0.199087768793106 
641	 0.199224561452866 
642	 0.199324131011963 
643	 0.199262946844101 
644	 0.199195951223373 
645	 0.199177697300911 
646	 0.199201673269272 
647	 0.199215069413185 
648	 0.199220299720764 
649	 0.199336618185043 
650	 0.199586540460587 
651	 0.199779286980629 
652	 0.199944734573364 
653	 0.200097918510437 
654	 0.200256630778313 
655	 0.20043833553791 
656	 0.200634822249413 
657	 0.200832664966583 
658	 0.201022535562515 
659	 0.201286613941193 
660	 0.201599642634392 
661	 0.201921999454498 
662	 0.202219486236572 
663	 0.202546253800392 
664	 0.202885180711746 
665	 0.203193336725235 
666	 0.203424364328384 
667	 0.203682377934456 
668	 0.204007118940353 
669	 0.204376026988029 
670	 0.204726532101631 
671	 0.205029979348183 
672	 0.205285117030144 
673	 0.205519378185272 
674	 0.20584599673748 
675	 0.206184148788452 
676	 0.206399962306023 
677	 0.20639856159687 
678	 0.20645871758461 
679	 0.20657405257225 
680	 0.206564038991928 
681	 0.206592962145805 
682	 0.206613421440125 
683	 0.206575810909271 
684	 0.206461191177368 
685	 0.206528201699257 
686	 0.206757098436356 
687	 0.207055866718292 
688	 0.207397371530533 
689	 0.207672342658043 
690	 0.207889139652252 
691	 0.208115294575691 
692	 0.208305031061172 
693	 0.20847499370575 
694	 0.208697959780693 
695	 0.209094822406769 
696	 0.20938715338707 
697	 0.209726110100746 
698	 0.210226640105247 
699	 0.210660085082054 
700	 0.211211055517197 
701	 0.211711212992668 
702	 0.211956262588501 
703	 0.212361335754395 
704	 0.212749868631363 
705	 0.213092118501663 
706	 0.213511258363724 
707	 0.213932976126671 
708	 0.214292570948601 
709	 0.214583784341812 
710	 0.214900434017181 
711	 0.215199068188667 
712	 0.215530917048454 
713	 0.215920075774193 
714	 0.216193452477455 
715	 0.216429427266121 
716	 0.216678246855736 
717	 0.216957330703735 
718	 0.217187851667404 
719	 0.217486396431923 
720	 0.217838421463966 
721	 0.218048796057701 
722	 0.218277931213379 
723	 0.218527689576149 
724	 0.218761697411537 
725	 0.218933805823326 
726	 0.219100698828697 
727	 0.219301760196686 
728	 0.219546884298325 
729	 0.219765618443489 
730	 0.219842538237572 
731	 0.219862952828407 
732	 0.22004622220993 
733	 0.220257878303528 
734	 0.22048956155777 
735	 0.220709949731827 
736	 0.220834046602249 
737	 0.220908552408218 
738	 0.220942229032516 
739	 0.220960974693298 
740	 0.221064686775208 
741	 0.221155941486359 
742	 0.221245482563972 
743	 0.221377462148666 
744	 0.221506029367447 
745	 0.221569806337357 
746	 0.221615597605705 
747	 0.221757858991623 
748	 0.221785888075829 
749	 0.22183483839035 
750	 0.221930906176567 
751	 0.221860826015472 
752	 0.221935853362083 
753	 0.222098961472511 
754	 0.22221365571022 
755	 0.222195848822594 
756	 0.222204476594925 
757	 0.222196593880653 
758	 0.222089484333992 
759	 0.222039863467216 
760	 0.222121641039848 
761	 0.222263976931572 
762	 0.222306221723557 
763	 0.222313344478607 
764	 0.222287550568581 
765	 0.222246721386909 
766	 0.222232609987259 
767	 0.222170099616051 
768	 0.222103804349899 
769	 0.222081542015076 
770	 0.222105532884598 
771	 0.222061023116112 
772	 0.222022876143456 
773	 0.222062438726425 
774	 0.221972793340683 
775	 0.22188925743103 
776	 0.221847668290138 
777	 0.221824690699577 
778	 0.221844583749771 
779	 0.221813231706619 
780	 0.221723973751068 
781	 0.221658065915108 
782	 0.221630409359932 
783	 0.221568837761879 
784	 0.221463948488235 
785	 0.221416041254997 
786	 0.221336767077446 
787	 0.221241623163223 
788	 0.221153110265732 
789	 0.221048980951309 
790	 0.220947757363319 
791	 0.220934376120567 
792	 0.221012726426125 
793	 0.22081084549427 
794	 0.220599070191383 
795	 0.220533072948456 
796	 0.220624580979347 
797	 0.220534801483154 
798	 0.220410823822021 
799	 0.220320269465446 
800	 0.220231011509895 
801	 0.220095932483673 
802	 0.219962492585182 
803	 0.219887003302574 
804	 0.219908356666565 
805	 0.219848945736885 
806	 0.219772055745125 
807	 0.219725087285042 
808	 0.219640761613846 
809	 0.219583109021187 
810	 0.219458520412445 
811	 0.219236016273499 
812	 0.219149887561798 
813	 0.219095259904861 
814	 0.21907414495945 
815	 0.219063520431519 
816	 0.218813821673393 
817	 0.218659266829491 
818	 0.218634516000748 
819	 0.218617662787437 
820	 0.218594819307327 
821	 0.218519374728203 
822	 0.218422561883926 
823	 0.218374833464622 
824	 0.218309581279755 
825	 0.218258887529373 
826	 0.218183547258377 
827	 0.217994958162308 
828	 0.217876121401787 
829	 0.217788189649582 
830	 0.217699602246284 
831	 0.217625126242638 
832	 0.2174933552742 
833	 0.21739187836647 
834	 0.217337757349014 
835	 0.217193394899368 
836	 0.217197492718697 
837	 0.217192813754082 
838	 0.217067748308182 
839	 0.217001736164093 
840	 0.216883450746536 
841	 0.216778352856636 
842	 0.216718792915344 
843	 0.216510385274887 
844	 0.216411218047142 
845	 0.216327056288719 
846	 0.216147273778915 
847	 0.216126754879951 
848	 0.216061681509018 
849	 0.215926423668861 
850	 0.215792894363403 
851	 0.215791210532188 
852	 0.215758666396141 
853	 0.215646997094154 
854	 0.21548692882061 
855	 0.215346947312355 
856	 0.21519348025322 
857	 0.215066090226173 
858	 0.215018779039383 
859	 0.214940562844276 
860	 0.214909166097641 
861	 0.214874237775803 
862	 0.214731827378273 
863	 0.214637190103531 
864	 0.214518785476685 
865	 0.214350491762161 
866	 0.214155569672585 
867	 0.213931635022163 
868	 0.213809609413147 
869	 0.21380877494812 
870	 0.213841766119003 
871	 0.213868290185928 
872	 0.213810607790947 
873	 0.213676199316978 
874	 0.213543772697449 
875	 0.213392004370689 
876	 0.213272646069527 
877	 0.213191032409668 
878	 0.213100016117096 
879	 0.212950959801674 
880	 0.212834626436234 
881	 0.212780877947807 
882	 0.212736159563065 
883	 0.212644442915916 
884	 0.212455734610558 
885	 0.212269991636276 
886	 0.212283238768578 
887	 0.212271377444267 
888	 0.212149307131767 
889	 0.211951702833176 
890	 0.211804658174515 
891	 0.211715996265411 
892	 0.21166767179966 
893	 0.211616054177284 
894	 0.211510956287384 
895	 0.211383700370789 
896	 0.211295336484909 
897	 0.211245656013489 
898	 0.211175516247749 
899	 0.211064264178276 
900	 0.210917055606842 
901	 0.210786864161491 
902	 0.210742473602295 
903	 0.210724160075188 
904	 0.210601136088371 
905	 0.210437342524529 
906	 0.210398495197296 
907	 0.210256710648537 
908	 0.210109531879425 
909	 0.210018277168274 
910	 0.209982454776764 
911	 0.209943786263466 
912	 0.209864467382431 
913	 0.209736406803131 
914	 0.209584504365921 
915	 0.209489598870277 
916	 0.209346383810043 
917	 0.209223821759224 
918	 0.20921902358532 
919	 0.209140703082085 
920	 0.209047332406044 
921	 0.208992034196854 
922	 0.208967298269272 
923	 0.208779588341713 
924	 0.20863451063633 
925	 0.208565324544907 
926	 0.208529561758041 
927	 0.208483412861824 
928	 0.208313122391701 
929	 0.208186596632004 
930	 0.20819990336895 
931	 0.208116516470909 
932	 0.208031490445137 
933	 0.207930818200111 
934	 0.207812324166298 
935	 0.207722216844559 
936	 0.207522049546242 
937	 0.207325547933578 
938	 0.207224622368813 
939	 0.207208722829819 
940	 0.207222416996956 
941	 0.207227617502213 
942	 0.207122936844826 
943	 0.206816002726555 
944	 0.206618577241898 
945	 0.206544071435928 
946	 0.206456258893013 
947	 0.206205978989601 
948	 0.205965787172318 
949	 0.205745190382004 
950	 0.205558359622955 
951	 0.205393314361572 
952	 0.20515164732933 
953	 0.204903081059456 
954	 0.204692721366882 
955	 0.204510688781738 
956	 0.2042515873909 
957	 0.204087182879448 
958	 0.203940346837044 
959	 0.203730121254921 
960	 0.203481540083885 
961	 0.203348472714424 
962	 0.203186556696892 
963	 0.203006327152252 
964	 0.202990502119064 
965	 0.20307432115078 
966	 0.203128382563591 
967	 0.203185930848122 
968	 0.203318193554878 
969	 0.203263819217682 
970	 0.203264147043228 
971	 0.203280344605446 
972	 0.203225359320641 
973	 0.203217223286629 
974	 0.203207358717918 
975	 0.203164249658585 
976	 0.203109204769135 
977	 0.203119680285454 
978	 0.203050687909126 
979	 0.202985420823097 
980	 0.202982321381569 
981	 0.203007310628891 
982	 0.202864751219749 
983	 0.202734127640724 
984	 0.202593818306923 
985	 0.202368393540382 
986	 0.202235653996468 
987	 0.202179551124573 
988	 0.202152773737907 
989	 0.202127531170845 
990	 0.202129945158958 
991	 0.201975435018539 
992	 0.201849207282066 
993	 0.201774895191193 
994	 0.201597318053246 
995	 0.201570227742195 
996	 0.201360613107681 
997	 0.20105291903019 
998	 0.200921878218651 
999	 0.200991794466972 
1000	 0.200868621468544 
1001	 0.171100109815598 
1002	 0.1710085272789 
1003	 0.170879304409027 
1004	 0.170789867639542 
1005	 0.170669168233871 
1006	 0.170666426420212 
1007	 0.170728459954262 
1008	 0.170656010508537 
1009	 0.170578941702843 
1010	 0.170530572533607 
1011	 0.170426487922668 
1012	 0.17018523812294 
1013	 0.170097082853317 
1014	 0.170144990086555 
1015	 0.170058399438858 
1016	 0.169916570186615 
1017	 0.169831141829491 
1018	 0.169733732938766 
1019	 0.16956689953804 
1020	 0.169567868113518 
1021	 0.1695616543293 
1022	 0.169486224651337 
1023	 0.169471308588982 
1024	 0.169443145394325 
1025	 0.169440731406212 
1026	 0.169368371367455 
1027	 0.169272229075432 
1028	 0.169179618358612 
1029	 0.169041499495506 
1030	 0.168897464871407 
1031	 0.168821886181831 
1032	 0.168721824884415 
1033	 0.168663263320923 
1034	 0.168645903468132 
1035	 0.168624147772789 
1036	 0.168579205870628 
1037	 0.16846290230751 
1038	 0.168308094143867 
1039	 0.168152168393135 
1040	 0.167919516563416 
1041	 0.167785868048668 
1042	 0.167728841304779 
1043	 0.16761776804924 
1044	 0.167511284351349 
1045	 0.167410910129547 
1046	 0.16732195019722 
1047	 0.16714970767498 
1048	 0.167081013321877 
1049	 0.167059034109116 
1050	 0.166939496994019 
1051	 0.16681432723999 
1052	 0.166691780090332 
1053	 0.16658978164196 
1054	 0.166482254862785 
1055	 0.166397362947464 
1056	 0.166318118572235 
1057	 0.166242212057114 
1058	 0.166139543056488 
1059	 0.166060492396355 
1060	 0.166010841727257 
1061	 0.166003331542015 
1062	 0.165923342108727 
1063	 0.165820002555847 
1064	 0.165805518627167 
1065	 0.16569796204567 
1066	 0.165532127022743 
1067	 0.165448024868965 
1068	 0.165294945240021 
1069	 0.165201842784882 
1070	 0.165195539593697 
1071	 0.165121048688889 
1072	 0.165018409490585 
1073	 0.164957210421562 
1074	 0.164886996150017 
1075	 0.164808109402657 
1076	 0.164800330996513 
1077	 0.164771929383278 
1078	 0.164722114801407 
1079	 0.164631769061089 
1080	 0.164586171507835 
1081	 0.164572715759277 
1082	 0.164543882012367 
1083	 0.164593026041985 
1084	 0.164571210741997 
1085	 0.164521127939224 
1086	 0.164486840367317 
1087	 0.164451614022255 
1088	 0.164345681667328 
1089	 0.164330825209618 
1090	 0.164342373609543 
1091	 0.164258539676666 
1092	 0.16420590877533 
1093	 0.164176821708679 
1094	 0.164096832275391 
1095	 0.164104610681534 
1096	 0.164153799414635 
1097	 0.16412378847599 
1098	 0.164173409342766 
1099	 0.164210841059685 
1100	 0.164161846041679 
1101	 0.164143458008766 
1102	 0.164157837629318 
1103	 0.164076894521713 
1104	 0.16398923099041 
1105	 0.163960918784142 
1106	 0.163841113448143 
1107	 0.16376306116581 
1108	 0.163703948259354 
1109	 0.163580700755119 
1110	 0.163514196872711 
1111	 0.163453623652458 
1112	 0.163341283798218 
1113	 0.163269057869911 
1114	 0.163269400596619 
1115	 0.163222700357437 
1116	 0.163139253854752 
1117	 0.163063690066338 
1118	 0.163007080554962 
1119	 0.162850826978683 
1120	 0.162660270929337 
1121	 0.162525907158852 
1122	 0.162388771772385 
1123	 0.162250712513924 
1124	 0.162178426980972 
1125	 0.162120670080185 
1126	 0.162013247609138 
1127	 0.161942467093468 
1128	 0.161864966154099 
1129	 0.161748558282852 
1130	 0.161669686436653 
1131	 0.161546096205711 
1132	 0.16142763197422 
1133	 0.161343440413475 
1134	 0.161217883229256 
1135	 0.161064624786377 
1136	 0.160928279161453 
1137	 0.16075710952282 
1138	 0.160588949918747 
1139	 0.160471573472023 
1140	 0.160306692123413 
1141	 0.160181820392609 
1142	 0.160075277090073 
1143	 0.159932658076286 
1144	 0.159831136465073 
1145	 0.159698531031609 
1146	 0.159575387835503 
1147	 0.15947063267231 
1148	 0.159326121211052 
1149	 0.159198760986328 
1150	 0.159076154232025 
1151	 0.158966019749641 
1152	 0.158859640359879 
1153	 0.158760368824005 
1154	 0.158648982644081 
1155	 0.158532276749611 
1156	 0.158412724733353 
1157	 0.158348679542542 
1158	 0.158304035663605 
1159	 0.158235117793083 
1160	 0.158175364136696 
1161	 0.158114969730377 
1162	 0.158027172088623 
1163	 0.1579779535532 
1164	 0.157891765236855 
1165	 0.157735869288445 
1166	 0.157666400074959 
1167	 0.157658085227013 
1168	 0.157601565122604 
1169	 0.157551988959312 
1170	 0.157552033662796 
1171	 0.157459691166878 
1172	 0.157378420233727 
1173	 0.157366544008255 
1174	 0.157333463430405 
1175	 0.15733402967453 
1176	 0.157323405146599 
1177	 0.157278418540955 
1178	 0.157245621085167 
1179	 0.157210439443588 
1180	 0.157188281416893 
1181	 0.157145947217941 
1182	 0.157084316015244 
1183	 0.15703684091568 
1184	 0.156975314021111 
1185	 0.156940415501595 
1186	 0.156922280788422 
1187	 0.156899362802505 
1188	 0.156899943947792 
1189	 0.156867265701294 
1190	 0.156798511743546 
1191	 0.156761482357979 
1192	 0.156683728098869 
1193	 0.156565219163895 
1194	 0.156511157751083 
1195	 0.156470790505409 
1196	 0.156413704156876 
1197	 0.156413525342941 
1198	 0.156406372785568 
1199	 0.156366482377052 
1200	 0.156330019235611 
1201	 0.156262755393982 
1202	 0.156200617551804 
1203	 0.156093344092369 
1204	 0.15604305267334 
1205	 0.156036823987961 
1206	 0.15600648522377 
1207	 0.155992105603218 
1208	 0.155954077839851 
1209	 0.155882745981216 
1210	 0.155829250812531 
1211	 0.155763670802116 
1212	 0.155677124857903 
1213	 0.155632629990578 
1214	 0.155582830309868 
1215	 0.155530959367752 
1216	 0.155508279800415 
1217	 0.155417934060097 
1218	 0.155336827039719 
1219	 0.155301555991173 
1220	 0.155287742614746 
1221	 0.155249670147896 
1222	 0.155259430408478 
1223	 0.155216693878174 
1224	 0.155135050415993 
1225	 0.155056923627853 
1226	 0.15496239066124 
1227	 0.154871478676796 
1228	 0.154807418584824 
1229	 0.154725506901741 
1230	 0.154686510562897 
1231	 0.154683321714401 
1232	 0.154627189040184 
1233	 0.154542773962021 
1234	 0.154444590210915 
1235	 0.154354125261307 
1236	 0.154303774237633 
1237	 0.154261708259583 
1238	 0.15418840944767 
1239	 0.154105186462402 
1240	 0.154027625918388 
1241	 0.153926566243172 
1242	 0.153842523694038 
1243	 0.153775706887245 
1244	 0.153716742992401 
1245	 0.15365594625473 
1246	 0.153585836291313 
1247	 0.153507396578789 
1248	 0.153482899069786 
1249	 0.153445899486542 
1250	 0.153393104672432 
1251	 0.153357058763504 
1252	 0.153313428163528 
1253	 0.153251275420189 
1254	 0.153218358755112 
1255	 0.15323705971241 
1256	 0.153218135237694 
1257	 0.153166353702545 
1258	 0.153130292892456 
1259	 0.153097555041313 
1260	 0.153055116534233 
1261	 0.153026133775711 
1262	 0.153015911579132 
1263	 0.152990907430649 
1264	 0.152969047427177 
1265	 0.152918636798859 
1266	 0.152854442596436 
1267	 0.152791008353233 
1268	 0.152687877416611 
1269	 0.152625516057014 
1270	 0.15258800983429 
1271	 0.152551412582397 
1272	 0.152513116598129 
1273	 0.152445882558823 
1274	 0.15241514146328 
1275	 0.15240415930748 
1276	 0.152336999773979 
1277	 0.152264833450317 
1278	 0.152184247970581 
1279	 0.15206290781498 
1280	 0.151970148086548 
1281	 0.15193136036396 
1282	 0.151846528053284 
1283	 0.151728227734566 
1284	 0.151618257164955 
1285	 0.151488766074181 
1286	 0.1513741761446 
1287	 0.151264473795891 
1288	 0.151169255375862 
1289	 0.151103779673576 
1290	 0.151007622480392 
1291	 0.150914698839188 
1292	 0.150784701108932 
1293	 0.150640770792961 
1294	 0.150534570217133 
1295	 0.15040847659111 
1296	 0.150266155600548 
1297	 0.15018168091774 
1298	 0.150102198123932 
1299	 0.150016784667969 
1300	 0.149958595633507 
1301	 0.149892970919609 
1302	 0.149800837039948 
1303	 0.149733141064644 
1304	 0.14970275759697 
1305	 0.149666354060173 
1306	 0.149608284235001 
1307	 0.149586752057076 
1308	 0.149607583880425 
1309	 0.149587467312813 
1310	 0.149547144770622 
1311	 0.149554193019867 
1312	 0.149567112326622 
1313	 0.14959254860878 
1314	 0.149683222174644 
1315	 0.149712428450584 
1316	 0.149682834744453 
1317	 0.149710148572922 
1318	 0.149729609489441 
1319	 0.149735346436501 
1320	 0.149778217077255 
1321	 0.149774715304375 
1322	 0.149735808372498 
1323	 0.149711340665817 
1324	 0.149684935808182 
1325	 0.149691358208656 
1326	 0.149704679846764 
1327	 0.1497652977705 
1328	 0.149748846888542 
1329	 0.14970688521862 
1330	 0.149660736322403 
1331	 0.149574175477028 
1332	 0.149503514170647 
1333	 0.149426743388176 
1334	 0.14937387406826 
1335	 0.149331748485565 
1336	 0.149270579218864 
1337	 0.149232044816017 
1338	 0.14918640255928 
1339	 0.149129703640938 
1340	 0.149041712284088 
1341	 0.148959681391716 
1342	 0.148836567997932 
1343	 0.14866991341114 
1344	 0.148557335138321 
1345	 0.148493736982346 
1346	 0.148400813341141 
1347	 0.148308530449867 
1348	 0.148205056786537 
1349	 0.148041650652885 
1350	 0.147915750741959 
1351	 0.147787511348724 
1352	 0.147661790251732 
1353	 0.147525683045387 
1354	 0.147403627634048 
1355	 0.147246658802032 
1356	 0.147069737315178 
1357	 0.146898627281189 
1358	 0.146709218621254 
1359	 0.146525785326958 
1360	 0.146362289786339 
1361	 0.146160751581192 
1362	 0.145930796861649 
1363	 0.145714104175568 
1364	 0.145471557974815 
1365	 0.145252481102943 
1366	 0.145069390535355 
1367	 0.144862323999405 
1368	 0.14465543627739 
1369	 0.144432708621025 
1370	 0.144201681017876 
1371	 0.143980786204338 
1372	 0.143751814961433 
1373	 0.143519192934036 
1374	 0.143315374851227 
1375	 0.143109023571014 
1376	 0.142920792102814 
1377	 0.14277221262455 
1378	 0.142604947090149 
1379	 0.142411649227142 
1380	 0.14220355451107 
1381	 0.141990154981613 
1382	 0.141727149486542 
1383	 0.14148285984993 
1384	 0.141095489263535 
1385	 0.140671864151955 
1386	 0.140111550688744 
1387	 0.139493405818939 
1388	 0.138669714331627 
1389	 0.137746036052704 
1390	 0.136610940098763 
1391	 0.135277688503265 
1392	 0.133790358901024 
1393	 0.132083579897881 
1394	 0.130321517586708 
1395	 0.128332391381264 
1396	 0.126402452588081 
1397	 0.124310344457626 
1398	 0.122407682240009 
1399	 0.120538458228111 
1400	 0.11879051476717 
1401	 0.117191933095455 
1402	 0.115806668996811 
1403	 0.114574708044529 
1404	 0.113477699458599 
1405	 0.11257878690958 
1406	 0.111770235002041 
1407	 0.111059598624706 
1408	 0.1104975938797 
1409	 0.110073126852512 
1410	 0.10984093695879 
1411	 0.109838984906673 
1412	 0.109981365501881 
1413	 0.1104836165905 
1414	 0.111250303685665 
1415	 0.112273320555687 
1416	 0.113644570112228 
1417	 0.115134507417679 
1418	 0.116927817463875 
1419	 0.118667766451836 
1420	 0.120632372796535 
1421	 0.122452095150948 
1422	 0.124335810542107 
1423	 0.126013040542603 
1424	 0.127634346485138 
1425	 0.129077300429344 
1426	 0.130355566740036 
1427	 0.131517753005028 
1428	 0.132539495825768 
1429	 0.133463591337204 
1430	 0.134230509400368 
1431	 0.134936943650246 
1432	 0.135530084371567 
1433	 0.136091873049736 
1434	 0.136595249176025 
1435	 0.137025415897369 
1436	 0.137399196624756 
1437	 0.137698650360107 
1438	 0.137947306036949 
1439	 0.13815376162529 
1440	 0.138309732079506 
1441	 0.138470351696014 
1442	 0.138599246740341 
1443	 0.138686984777451 
1444	 0.138800546526909 
1445	 0.138860315084457 
1446	 0.138903543353081 
1447	 0.138910904526711 
1448	 0.138927489519119 
1449	 0.138928234577179 
1450	 0.138926714658737 
1451	 0.138920441269875 
1452	 0.138897225260735 
1453	 0.138853058218956 
1454	 0.138827532529831 
1455	 0.138802409172058 
1456	 0.13877409696579 
1457	 0.138759970664978 
1458	 0.138720333576202 
1459	 0.13864754140377 
1460	 0.138607934117317 
1461	 0.138571128249168 
1462	 0.138545945286751 
1463	 0.138553127646446 
1464	 0.138539120554924 
1465	 0.138511553406715 
1466	 0.138493597507477 
1467	 0.138482749462128 
1468	 0.138458728790283 
1469	 0.13845157623291 
1470	 0.138411462306976 
1471	 0.13833250105381 
1472	 0.138264656066895 
1473	 0.138167634606361 
1474	 0.138099744915962 
1475	 0.138037413358688 
1476	 0.138012334704399 
1477	 0.137999728322029 
1478	 0.137967377901077 
1479	 0.137920498847961 
1480	 0.137871846556664 
1481	 0.137825533747673 
1482	 0.137796342372894 
1483	 0.137767717242241 
1484	 0.137724936008453 
1485	 0.137688398361206 
1486	 0.137642413377762 
1487	 0.137603759765625 
1488	 0.137581869959831 
1489	 0.137522771954536 
1490	 0.137450441718102 
1491	 0.137401595711708 
1492	 0.137354701757431 
1493	 0.137301430106163 
1494	 0.137256950139999 
1495	 0.137205228209496 
1496	 0.13713413476944 
1497	 0.137091606855392 
1498	 0.137071996927261 
1499	 0.137023866176605 
1500	 0.136978939175606 
1501	 0.136923655867577 
1502	 0.136836931109428 
1503	 0.13678452372551 
1504	 0.136755540966988 
1505	 0.136701539158821 
1506	 0.136654913425446 
1507	 0.136593163013458 
1508	 0.13649308681488 
1509	 0.13643254339695 
1510	 0.136397927999496 
1511	 0.136336326599121 
1512	 0.136273324489594 
1513	 0.136224344372749 
1514	 0.136168837547302 
1515	 0.136111289262772 
1516	 0.136076956987381 
1517	 0.136024639010429 
1518	 0.13593327999115 
1519	 0.135870218276978 
1520	 0.135843455791473 
1521	 0.135784849524498 
1522	 0.135710388422012 
1523	 0.135647401213646 
1524	 0.135558992624283 
1525	 0.135488286614418 
1526	 0.135469034314156 
1527	 0.135404318571091 
1528	 0.135295584797859 
1529	 0.135220244526863 
1530	 0.13513520359993 
1531	 0.135056331753731 
1532	 0.135034367442131 
1533	 0.135020613670349 
1534	 0.134940132498741 
1535	 0.13485486805439 
1536	 0.134795546531677 
1537	 0.134728342294693 
1538	 0.134690284729004 
1539	 0.134640619158745 
1540	 0.134533926844597 
1541	 0.134455755352974 
1542	 0.134405583143234 
1543	 0.134341105818748 
1544	 0.134303867816925 
1545	 0.134251549839973 
1546	 0.134157806634903 
1547	 0.134091705083847 
1548	 0.134019404649734 
1549	 0.133925497531891 
1550	 0.133876532316208 
1551	 0.133840695023537 
1552	 0.133799836039543 
1553	 0.133770376443863 
1554	 0.133698955178261 
1555	 0.133617356419563 
1556	 0.133549049496651 
1557	 0.13343819975853 
1558	 0.133326053619385 
1559	 0.13326133787632 
1560	 0.133202165365219 
1561	 0.133131414651871 
1562	 0.133094623684883 
1563	 0.133070051670074 
1564	 0.133008405566216 
1565	 0.132949486374855 
1566	 0.132897689938545 
1567	 0.132809713482857 
1568	 0.13273860514164 
1569	 0.132675915956497 
1570	 0.132602870464325 
1571	 0.132530599832535 
1572	 0.132449820637703 
1573	 0.1323431879282 
1574	 0.132276982069016 
1575	 0.132234483957291 
1576	 0.132164254784584 
1577	 0.132103338837624 
1578	 0.132041275501251 
1579	 0.131940424442291 
1580	 0.131890073418617 
1581	 0.131898790597916 
1582	 0.131847888231277 
1583	 0.131785079836845 
1584	 0.131718575954437 
1585	 0.131605565547943 
1586	 0.131540313363075 
1587	 0.131511837244034 
1588	 0.131452664732933 
1589	 0.131396815180779 
1590	 0.131346866488457 
1591	 0.131283983588219 
1592	 0.131227403879166 
1593	 0.131173625588417 
1594	 0.131126835942268 
1595	 0.131074488162994 
1596	 0.131037175655365 
1597	 0.131038174033165 
1598	 0.131004273891449 
1599	 0.130956634879112 
1600	 0.1308963149786 
1601	 0.130818843841553 
1602	 0.130743458867073 
1603	 0.130648538470268 
1604	 0.130577400326729 
1605	 0.130520582199097 
1606	 0.130445241928101 
1607	 0.130369111895561 
1608	 0.130305856466293 
1609	 0.130230441689491 
1610	 0.130178406834602 
1611	 0.130165755748749 
1612	 0.13010248541832 
1613	 0.13002060353756 
1614	 0.129951000213623 
1615	 0.129852429032326 
1616	 0.129782348871231 
1617	 0.129737988114357 
1618	 0.129672229290009 
1619	 0.129608750343323 
1620	 0.129552125930786 
1621	 0.129492327570915 
1622	 0.129427045583725 
1623	 0.129350930452347 
1624	 0.1292904317379 
1625	 0.129248663783073 
1626	 0.129188939929008 
1627	 0.12912543118 
1628	 0.129070281982422 
1629	 0.129002004861832 
1630	 0.128919407725334 
1631	 0.128847599029541 
1632	 0.128792852163315 
1633	 0.128715649247169 
1634	 0.128672361373901 
1635	 0.1286780834198 
1636	 0.12862728536129 
1637	 0.128554120659828 
1638	 0.128485605120659 
1639	 0.128396898508072 
1640	 0.128336519002914 
1641	 0.128297507762909 
1642	 0.128249153494835 
1643	 0.1281917989254 
1644	 0.128138467669487 
1645	 0.128078326582909 
1646	 0.1280367821455 
1647	 0.128028020262718 
1648	 0.127993851900101 
1649	 0.127958759665489 
1650	 0.127921879291534 
1651	 0.127853408455849 
1652	 0.127805322408676 
1653	 0.127794250845909 
1654	 0.127729550004005 
1655	 0.127646267414093 
1656	 0.127572596073151 
1657	 0.127443373203278 
1658	 0.127365544438362 
1659	 0.127331078052521 
1660	 0.127279788255692 
1661	 0.127263009548187 
1662	 0.127221122384071 
1663	 0.127124682068825 
1664	 0.127067521214485 
1665	 0.127027913928032 
1666	 0.126969307661057 
1667	 0.126972392201424 
1668	 0.126920104026794 
1669	 0.126852050423622 
1670	 0.126798495650291 
1671	 0.126713544130325 
1672	 0.126686215400696 
1673	 0.126674562692642 
1674	 0.126619458198547 
1675	 0.126573160290718 
1676	 0.126495823264122 
1677	 0.12638746201992 
1678	 0.126318141818047 
1679	 0.126278609037399 
1680	 0.126220718026161 
1681	 0.126152828335762 
1682	 0.126073852181435 
1683	 0.1259905397892 
1684	 0.125932812690735 
1685	 0.12586310505867 
1686	 0.125796169042587 
1687	 0.125745266675949 
1688	 0.125681221485138 
1689	 0.125616326928139 
1690	 0.125549346208572 
1691	 0.12547904253006 
1692	 0.125390931963921 
1693	 0.125323757529259 
1694	 0.125314056873322 
1695	 0.125274464488029 
1696	 0.12518385052681 
1697	 0.125114962458611 
1698	 0.125061750411987 
1699	 0.124961547553539 
1700	 0.124884963035583 
1701	 0.124886348843575 
1702	 0.124850474298 
1703	 0.124808147549629 
1704	 0.12479293346405 
1705	 0.124720744788647 
1706	 0.124645441770554 
1707	 0.124575756490231 
1708	 0.124528415501118 
1709	 0.124494679272175 
1710	 0.124383620917797 
1711	 0.124290376901627 
1712	 0.124218851327896 
1713	 0.124141193926334 
1714	 0.124118722975254 
1715	 0.124082006514072 
1716	 0.1240454018116 
1717	 0.123992688953876 
1718	 0.123901590704918 
1719	 0.123851709067822 
1720	 0.123756907880306 
1721	 0.123629696667194 
1722	 0.123556457459927 
1723	 0.123485587537289 
1724	 0.12343967705965 
1725	 0.123434744775295 
1726	 0.123384989798069 
1727	 0.123318500816822 
1728	 0.12322872877121 
1729	 0.123170882463455 
1730	 0.123117990791798 
1731	 0.12307208776474 
1732	 0.123032540082932 
1733	 0.122985705733299 
1734	 0.122972369194031 
1735	 0.122924648225307 
1736	 0.122865274548531 
1737	 0.12279012799263 
1738	 0.122636094689369 
1739	 0.122548520565033 
1740	 0.122493453323841 
1741	 0.122404083609581 
1742	 0.122392408549786 
1743	 0.12234365940094 
1744	 0.122275538742542 
1745	 0.122263006865978 
1746	 0.122213505208492 
1747	 0.122164264321327 
1748	 0.122108861804008 
1749	 0.122038930654526 
1750	 0.121979787945747 
1751	 0.121931560337543 
1752	 0.121909812092781 
1753	 0.121856808662415 
1754	 0.12180569767952 
1755	 0.121746629476547 
1756	 0.121656462550163 
1757	 0.121599040925503 
1758	 0.121519289910793 
1759	 0.121422342956066 
1760	 0.12134650349617 
1761	 0.121270313858986 
1762	 0.121186353266239 
1763	 0.121115125715733 
1764	 0.121056653559208 
1765	 0.120998859405518 
1766	 0.120952367782593 
1767	 0.120918400585651 
1768	 0.120883919298649 
1769	 0.120824463665485 
1770	 0.120758011937141 
1771	 0.120665840804577 
1772	 0.120563842356205 
1773	 0.120490081608295 
1774	 0.120432309806347 
1775	 0.120430119335651 
1776	 0.120449729263783 
1777	 0.120431378483772 
1778	 0.120437070727348 
1779	 0.120382077991962 
1780	 0.120322696864605 
1781	 0.120280854403973 
1782	 0.120195314288139 
1783	 0.120171040296555 
1784	 0.120169267058372 
1785	 0.120109766721725 
1786	 0.120063103735447 
1787	 0.119985677301884 
1788	 0.119930781424046 
1789	 0.119918875396252 
1790	 0.119895458221436 
1791	 0.119874939322472 
1792	 0.119791947305202 
1793	 0.119682885706425 
1794	 0.119592733681202 
1795	 0.119536451995373 
1796	 0.119503289461136 
1797	 0.119491659104824 
1798	 0.119501285254955 
1799	 0.119426406919956 
1800	 0.119321189820766 
1801	 0.119213633239269 
1802	 0.119081504642963 
1803	 0.119024179875851 
1804	 0.1190265417099 
1805	 0.119037628173828 
1806	 0.119024738669395 
1807	 0.118950322270393 
1808	 0.118829846382141 
1809	 0.11869952827692 
1810	 0.118621848523617 
1811	 0.118640765547752 
1812	 0.118616916239262 
1813	 0.118623659014702 
1814	 0.118623226881027 
1815	 0.118560418486595 
1816	 0.118493877351284 
1817	 0.118405304849148 
1818	 0.11822884529829 
1819	 0.118104390799999 
1820	 0.118021197617054 
1821	 0.11790069937706 
1822	 0.117831982672215 
1823	 0.117740921676159 
1824	 0.117595806717873 
1825	 0.117480911314487 
1826	 0.117393150925636 
1827	 0.117305092513561 
1828	 0.117293529212475 
1829	 0.117256425321102 
1830	 0.117152072489262 
1831	 0.118769556283951 
1832	 0.118756033480167 
1833	 0.118690259754658 
1834	 0.118670284748077 
1835	 0.118652634322643 
1836	 0.118569493293762 
1837	 0.1185332685709 
1838	 0.118550702929497 
1839	 0.118613354861736 
1840	 0.118597805500031 
1841	 0.118604406714439 
1842	 0.118528097867966 
1843	 0.11839497089386 
1844	 0.118330508470535 
1845	 0.118240438401699 
1846	 0.118186682462692 
1847	 0.118172988295555 
1848	 0.118230633437634 
1849	 0.118211172521114 
1850	 0.118195116519928 
1851	 0.11818889528513 
1852	 0.118105158209801 
1853	 0.118012443184853 
1854	 0.11798033863306 
1855	 0.117971129715443 
1856	 0.118053704500198 
1857	 0.118010610342026 
1858	 0.117919020354748 
1859	 0.117875747382641 
1860	 0.117726974189281 
1861	 0.117611199617386 
1862	 0.117632336914539 
1863	 0.117603868246078 
1864	 0.11756893247366 
1865	 0.117536067962646 
1866	 0.117486149072647 
1867	 0.117412470281124 
1868	 0.117317132651806 
1869	 0.117249868810177 
1870	 0.117223933339119 
1871	 0.11713145673275 
1872	 0.117026746273041 
1873	 0.11695771664381 
1874	 0.116854220628738 
1875	 0.116723909974098 
1876	 0.116600401699543 
1877	 0.11644634604454 
1878	 0.116227351129055 
1879	 0.11603718996048 
1880	 0.115913778543472 
1881	 0.115684755146503 
1882	 0.115528047084808 
1883	 0.115385986864567 
1884	 0.115102246403694 
1885	 0.114910542964935 
1886	 0.114703185856342 
1887	 0.114405870437622 
1888	 0.114169597625732 
1889	 0.113972820341587 
1890	 0.113788634538651 
1891	 0.113555341959 
1892	 0.113356851041317 
1893	 0.113123536109924 
1894	 0.112793102860451 
1895	 0.112533926963806 
1896	 0.112272672355175 
1897	 0.112000145018101 
1898	 0.111824430525303 
1899	 0.111619867384434 
1900	 0.111400716006756 
1901	 0.111233681440353 
1902	 0.111126825213432 
1903	 0.110919132828712 
1904	 0.110787056386471 
1905	 0.11065461486578 
1906	 0.110419705510139 
1907	 0.110302217304707 
1908	 0.11022537946701 
1909	 0.110090620815754 
1910	 0.109967768192291 
1911	 0.109869971871376 
1912	 0.10971811413765 
1913	 0.109556533396244 
1914	 0.109443843364716 
1915	 0.109364233911037 
1916	 0.109351806342602 
1917	 0.109296977519989 
1918	 0.109226316213608 
1919	 0.10916592925787 
1920	 0.109112165868282 
1921	 0.109141498804092 
1922	 0.109089136123657 
1923	 0.109027542173862 
1924	 0.108899272978306 
1925	 0.108852729201317 
1926	 0.108821325004101 
1927	 0.108845792710781 
1928	 0.10896085947752 
1929	 0.108903117477894 
1930	 0.108739078044891 
1931	 0.108622439205647 
1932	 0.108439691364765 
1933	 0.108369082212448 
1934	 0.108378916978836 
1935	 0.108431980013847 
1936	 0.108363844454288 
1937	 0.108373209834099 
1938	 0.108379654586315 
1939	 0.108332082629204 
1940	 0.108359552919865 
1941	 0.10840231180191 
1942	 0.108413107693195 
1943	 0.108385369181633 
1944	 0.108339913189411 
1945	 0.108255326747894 
1946	 0.10823754966259 
1947	 0.108224123716354 
1948	 0.108205482363701 
1949	 0.108215726912022 
1950	 0.108267731964588 
1951	 0.108280442655087 
1952	 0.108257837593555 
1953	 0.108307093381882 
1954	 0.108291774988174 
1955	 0.108226872980595 
1956	 0.108223631978035 
1957	 0.10821358859539 
1958	 0.108230233192444 
1959	 0.108214139938354 
1960	 0.108207441866398 
1961	 0.108132250607014 
1962	 0.10807428508997 
1963	 0.108058601617813 
1964	 0.108073264360428 
1965	 0.10810974240303 
1966	 0.108196750283241 
1967	 0.108208313584328 
1968	 0.108197309076786 
1969	 0.108154527842999 
1970	 0.10816540569067 
1971	 0.108122304081917 
1972	 0.108142398297787 
1973	 0.108235768973827 
1974	 0.10834302008152 
1975	 0.108352273702621 
1976	 0.108421698212624 
1977	 0.108472220599651 
1978	 0.108405262231827 
1979	 0.108434341847897 
1980	 0.108500957489014 
1981	 0.108524985611439 
1982	 0.108549878001213 
1983	 0.108593873679638 
1984	 0.108601972460747 
1985	 0.108625508844852 
1986	 0.108702272176743 
1987	 0.1087391898036 
1988	 0.108643136918545 
1989	 0.108639746904373 
1990	 0.108684651553631 
1991	 0.108698107302189 
1992	 0.10874754935503 
1993	 0.108787402510643 
1994	 0.10883329808712 
1995	 0.108843147754669 
1996	 0.108846127986908 
1997	 0.108869642019272 
1998	 0.108897730708122 
1999	 0.108893595635891 
2000	 0.108887307345867 
2001	 0.108910501003265 
2002	 0.108921527862549 
2003	 0.108908236026764 
2004	 0.108867317438126 
2005	 0.108912073075771 
2006	 0.109036020934582 
2007	 0.109074205160141 
2008	 0.109121464192867 
2009	 0.109117560088634 
2010	 0.108964629471302 
2011	 0.108966581523418 
2012	 0.109056986868382 
2013	 0.109094455838203 
2014	 0.109101347625256 
2015	 0.109144501388073 
2016	 0.109070114791393 
2017	 0.1089943125844 
2018	 0.109093241393566 
2019	 0.109181582927704 
2020	 0.109236270189285 
2021	 0.109327308833599 
2022	 0.109371222555637 
2023	 0.109319180250168 
2024	 0.109365679323673 
2025	 0.109479241073132 
2026	 0.10950742661953 
2027	 0.109539739787579 
2028	 0.109567105770111 
2029	 0.109531052410603 
2030	 0.109467059373856 
2031	 0.109403945505619 
2032	 0.109417892992496 
2033	 0.109438471496105 
2034	 0.109441310167313 
2035	 0.109437808394432 
2036	 0.109462909400463 
2037	 0.109443798661232 
2038	 0.109325960278511 
2039	 0.109344333410263 
2040	 0.109450504183769 
2041	 0.109512932598591 
2042	 0.109649896621704 
2043	 0.109727196395397 
2044	 0.109660044312477 
2045	 0.109654389321804 
2046	 0.109721779823303 
2047	 0.109690338373184 
2048	 0.109648987650871 
2049	 0.109620921313763 
2050	 0.109589412808418 
2051	 0.109474919736385 
2052	 0.109438642859459 
2053	 0.109478361904621 
2054	 0.109485551714897 
2055	 0.109511375427246 
2056	 0.109485946595669 
2057	 0.109445571899414 
2058	 0.109366692602634 
2059	 0.109351091086864 
2060	 0.109340228140354 
2061	 0.109361216425896 
2062	 0.109400860965252 
2063	 0.109354622662067 
2064	 0.109364382922649 
2065	 0.109315544366837 
2066	 0.109222613275051 
2067	 0.109181098639965 
2068	 0.109104298055172 
2069	 0.109082259237766 
2070	 0.109143853187561 
2071	 0.109193101525307 
2072	 0.109324991703033 
2073	 0.109302490949631 
2074	 0.109195567667484 
2075	 0.109178505837917 
2076	 0.109070211648941 
2077	 0.108874797821045 
2078	 0.108787022531033 
2079	 0.108748540282249 
2080	 0.108689680695534 
2081	 0.108648031949997 
2082	 0.108592644333839 
2083	 0.10855233669281 
2084	 0.108457259833813 
2085	 0.108321562409401 
2086	 0.108211442828178 
2087	 0.108078435063362 
2088	 0.10795571655035 
2089	 0.107851967215538 
2090	 0.10773928463459 
2091	 0.107593804597855 
2092	 0.107433617115021 
2093	 0.107239983975887 
2094	 0.106994047760963 
2095	 0.106826469302177 
2096	 0.106711260974407 
2097	 0.106546498835087 
2098	 0.106391772627831 
2099	 0.10624572634697 
2100	 0.106070019304752 
2101	 0.105912588536739 
2102	 0.105806887149811 
2103	 0.105667747557163 
2104	 0.105467706918716 
2105	 0.105312585830688 
2106	 0.105168901383877 
2107	 0.105049505829811 
2108	 0.104965314269066 
2109	 0.104872725903988 
2110	 0.104717791080475 
2111	 0.104577101767063 
2112	 0.104530401527882 
2113	 0.104504473507404 
2114	 0.104418992996216 
2115	 0.104363158345222 
2116	 0.104288272559643 
2117	 0.104111768305302 
2118	 0.104031458497047 
2119	 0.104030288755894 
2120	 0.104017712175846 
2121	 0.104017823934555 
2122	 0.104007214307785 
2123	 0.104012943804264 
2124	 0.104009501636028 
2125	 0.104012474417686 
2126	 0.103981770575047 
2127	 0.103914700448513 
2128	 0.103953815996647 
2129	 0.103955656290054 
2130	 0.103914596140385 
2131	 0.103963069617748 
2132	 0.103943027555943 
2133	 0.103896856307983 
2134	 0.103826649487019 
2135	 0.103781491518021 
2136	 0.103716760873795 
2137	 0.103603638708591 
2138	 0.103457063436508 
2139	 0.103356152772903 
2140	 0.103273928165436 
2141	 0.103146016597748 
2142	 0.103009484708309 
2143	 0.102875001728535 
2144	 0.102690115571022 
2145	 0.102512337267399 
2146	 0.102358289062977 
2147	 0.102194361388683 
2148	 0.101965568959713 
2149	 0.101635739207268 
2150	 0.101322762668133 
2151	 0.101161353290081 
2152	 0.100894406437874 
2153	 0.100609190762043 
2154	 0.10031396895647 
2155	 0.100011363625526 
2156	 9.96205359697342E-02 
2157	 9.91924777626991E-02 
2158	 9.87783223390579E-02 
2159	 9.82958525419235E-02 
2160	 9.77936238050461E-02 
2161	 9.73356440663338E-02 
2162	 9.68001931905746E-02 
2163	 9.61676612496376E-02 
2164	 9.55511033535004E-02 
2165	 9.49529334902763E-02 
2166	 9.43196564912796E-02 
2167	 9.36924144625664E-02 
2168	 9.30404886603355E-02 
2169	 9.22331362962723E-02 
2170	 9.14365723729134E-02 
2171	 9.06608998775482E-02 
2172	 8.97449180483818E-02 
2173	 0.088841050863266 
2174	 8.79595503211021E-02 
2175	 8.70202258229256E-02 
2176	 8.59979242086411E-02 
2177	 0.084974505007267 
2178	 8.39958265423775E-02 
2179	 8.28938111662865E-02 
2180	 8.16120058298111E-02 
2181	 8.04752856492996E-02 
2182	 7.93363228440285E-02 
2183	 7.82156065106392E-02 
2184	 7.71245881915092E-02 
2185	 0.076123870909214 
2186	 7.51873478293419E-02 
2187	 7.41997882723808E-02 
2188	 7.33324214816093E-02 
2189	 7.25510865449905E-02 
2190	 0.071720689535141 
2191	 7.10628628730774E-02 
2192	 7.04047530889511E-02 
2193	 6.97034820914268E-02 
2194	 6.92772939801216E-02 
2195	 6.88928961753845E-02 
2196	 6.85866922140121E-02 
2197	 6.84601813554764E-02 
2198	 6.83883801102638E-02 
2199	 6.83475732803345E-02 
2200	 0.0683558806777 
2201	 6.84941932559013E-02 
2202	 6.86626434326172E-02 
2203	 6.87871500849724E-02 
2204	 6.90995305776596E-02 
2205	 6.95881918072701E-02 
2206	 7.00840279459953E-02 
2207	 7.07511380314827E-02 
2208	 7.13211745023727E-02 
2209	 7.17779472470284E-02 
2210	 7.23968222737312E-02 
2211	 7.30588510632515E-02 
2212	 0.073795847594738 
2213	 7.45368823409081E-02 
2214	 0.075396403670311 
2215	 7.62223303318024E-02 
2216	 0.076930470764637 
2217	 7.77115896344185E-02 
2218	 7.85429105162621E-02 
2219	 7.93025642633438E-02 
2220	 7.99629762768745E-02 
2221	 8.06253477931023E-02 
2222	 8.12382474541664E-02 
2223	 8.18221941590309E-02 
2224	 0.082333117723465 
2225	 0.082912914454937 
2226	 0.083537295460701 
2227	 8.40565487742424E-02 
2228	 8.45608711242676E-02 
2229	 8.50130841135979E-02 
2230	 8.53932201862335E-02 
2231	 8.57361406087875E-02 
2232	 8.60094875097275E-02 
2233	 8.63025933504105E-02 
2234	 8.65680873394012E-02 
2235	 8.68095681071281E-02 
2236	 8.70304480195045E-02 
2237	 8.73147770762444E-02 
2238	 8.76093506813049E-02 
2239	 8.78589823842049E-02 
2240	 8.81553590297699E-02 
2241	 8.84750336408615E-02 
2242	 8.87144505977631E-02 
2243	 8.88891965150833E-02 
2244	 8.92234072089195E-02 
2245	 8.94605442881584E-02 
2246	 8.95480290055275E-02 
2247	 0.089686743915081 
2248	 8.97645503282547E-02 
2249	 8.98764654994011E-02 
2250	 0.090154267847538 
2251	 0.090378075838089 
2252	 9.04921442270279E-02 
2253	 0.090487964451313 
2254	 0.090605616569519 
2255	 9.06960219144821E-02 
2256	 9.08031463623047E-02 
2257	 9.09805297851563E-02 
2258	 9.10770073533058E-02 
2259	 9.10715833306313E-02 
2260	 9.11953747272491E-02 
2261	 9.14319306612015E-02 
2262	 9.15873423218727E-02 
2263	 9.17335525155067E-02 
2264	 0.091889314353466 
2265	 9.20819565653801E-02 
2266	 9.21210423111916E-02 
2267	 9.20284613966942E-02 
2268	 9.20624509453774E-02 
2269	 9.20239686965942E-02 
2270	 9.20344516634941E-02 
2271	 9.22286882996559E-02 
2272	 9.23459678888321E-02 
2273	 9.21453982591629E-02 
2274	 9.19339433312416E-02 
2275	 9.16744992136955E-02 
2276	 9.15058329701424E-02 
2277	 9.16355475783348E-02 
2278	 0.091739758849144 
2279	 9.17239338159561E-02 
2280	 9.16956663131714E-02 
2281	 9.16107669472694E-02 
2282	 9.15084332227707E-02 
2283	 9.14696156978607E-02 
2284	 9.14641842246056E-02 
2285	 9.13921520113945E-02 
2286	 9.13094505667686E-02 
2287	 9.11505073308945E-02 
2288	 9.09707397222519E-02 
2289	 9.09720659255981E-02 
2290	 9.08314362168312E-02 
2291	 0.090667188167572 
2292	 9.06278863549232E-02 
2293	 9.03699472546577E-02 
2294	 8.98516178131104E-02 
2295	 8.94976630806923E-02 
2296	 8.91274139285088E-02 
2297	 8.88141021132469E-02 
2298	 8.85270163416862E-02 
2299	 8.82986485958099E-02 
2300	 8.81300792098045E-02 
2301	 8.78819674253464E-02 
2302	 8.77049118280411E-02 
2303	 8.74935165047646E-02 
2304	 8.72189104557037E-02 
2305	 8.69382619857788E-02 
2306	 8.66994708776474E-02 
2307	 8.63093212246895E-02 
2308	 8.56757462024689E-02 
2309	 8.53086933493614E-02 
2310	 0.085115909576416 
2311	 8.47276896238327E-02 
2312	 8.42766687273979E-02 
2313	 0.084044024348259 
2314	 8.38936641812325E-02 
2315	 8.35260227322578E-02 
2316	 8.32284167408943E-02 
2317	 8.29522386193275E-02 
2318	 8.23006853461266E-02 
2319	 8.15419852733612E-02 
2320	 8.11854675412178E-02 
2321	 8.08961912989616E-02 
2322	 8.05289372801781E-02 
2323	 8.02130177617073E-02 
2324	 0.07986019551754 
2325	 7.94532597064972E-02 
2326	 7.90019482374191E-02 
2327	 7.86053165793419E-02 
2328	 7.81544521450996E-02 
2329	 0.077617920935154 
2330	 7.71955028176308E-02 
2331	 7.68390819430351E-02 
2332	 7.65378922224045E-02 
2333	 7.62318298220634E-02 
2334	 7.58125856518745E-02 
2335	 7.54822120070457E-02 
2336	 7.52003937959671E-02 
2337	 7.48335868120193E-02 
2338	 7.45682939887047E-02 
2339	 7.44586512446404E-02 
2340	 7.43648335337639E-02 
2341	 0.07430250197649 
2342	 7.42835700511932E-02 
2343	 7.41806253790855E-02 
2344	 7.39528238773346E-02 
2345	 7.36575201153755E-02 
2346	 7.33529850840569E-02 
2347	 0.073129266500473 
2348	 7.31281936168671E-02 
2349	 7.33138844370842E-02 
2350	 7.33942911028862E-02 
2351	 7.35320597887039E-02 
2352	 7.36218765377998E-02 
2353	 7.37075284123421E-02 
2354	 0.073768638074398 
2355	 0.073883906006813 
2356	 7.39189684391022E-02 
2357	 7.36939460039139E-02 
2358	 7.38154277205467E-02 
2359	 7.41909742355347E-02 
2360	 7.43107423186302E-02 
2361	 7.44392052292824E-02 
2362	 7.46860951185226E-02 
2363	 7.48307108879089E-02 
2364	 7.49781206250191E-02 
2365	 7.54855871200562E-02 
2366	 7.55071118474007E-02 
2367	 7.49773532152176E-02 
2368	 7.49787837266922E-02 
2369	 7.51143619418144E-02 
2370	 7.50503167510033E-02 
2371	 7.51921758055687E-02 
2372	 7.51846432685852E-02 
2373	 0.074799545109272 
2374	 7.48143643140793E-02 
2375	 7.51812309026718E-02 
2376	 7.51082599163055E-02 
2377	 7.48191550374031E-02 
2378	 7.48334154486656E-02 
2379	 7.48371258378029E-02 
2380	 7.48438462615013E-02 
2381	 7.51457735896111E-02 
2382	 7.51792788505554E-02 
2383	 0.074933834373951 
2384	 0.074809305369854 
2385	 7.47402682900429E-02 
2386	 7.46718049049377E-02 
2387	 7.44165107607841E-02 
2388	 7.44174420833588E-02 
2389	 7.47976303100586E-02 
2390	 7.47079998254776E-02 
2391	 7.45182484388351E-02 
2392	 7.43836835026741E-02 
2393	 7.37539231777191E-02 
2394	 7.36135020852089E-02 
2395	 7.39697143435478E-02 
2396	 7.40173757076263E-02 
2397	 7.41041824221611E-02 
2398	 7.41460025310516E-02 
2399	 7.40343630313873E-02 
2400	 7.39183574914932E-02 
2401	 7.39153400063515E-02 
2402	 7.36505389213562E-02 
2403	 7.31206834316254E-02 
2404	 7.28264003992081E-02 
2405	 7.22998455166817E-02 
2406	 7.22286552190781E-02 
2407	 7.27801769971848E-02 
2408	 7.27431103587151E-02 
2409	 7.25983753800392E-02 
2410	 7.24231451749802E-02 
2411	 7.18803778290749E-02 
2412	 0.071476936340332 
2413	 7.12164789438248E-02 
2414	 7.10736364126205E-02 
2415	 7.09222108125687E-02 
2416	 7.06949010491371E-02 
2417	 7.06927925348282E-02 
2418	 7.03378245234489E-02 
2419	 6.94804191589355E-02 
2420	 6.91799446940422E-02 
2421	 6.90629929304123E-02 
2422	 6.88868314027786E-02 
2423	 6.92232474684715E-02 
2424	 6.89052566885948E-02 
2425	 6.78273066878319E-02 
2426	 0.06768449395895 
2427	 6.76888525485992E-02 
2428	 6.77594244480133E-02 
2429	 6.87594190239906E-02 
2430	 6.87470063567162E-02 
2431	 6.79797530174255E-02 
2432	 6.77996650338173E-02 
2433	 6.75688609480858E-02 
2434	 6.72024562954903E-02 
2435	 6.69895485043526E-02 
2436	 6.68400898575783E-02 
2437	 6.63197785615921E-02 
2438	 6.64192214608192E-02 
2439	 6.72929510474205E-02 
2440	 6.73043206334114E-02 
2441	 6.70775920152664E-02 
2442	 6.70131295919418E-02 
2443	 6.65186792612076E-02 
2444	 6.65222704410553E-02 
2445	 6.69754594564438E-02 
2446	 6.70704618096352E-02 
2447	 6.70525729656219E-02 
2448	 6.71794414520264E-02 
2449	 0.067480243742466 
2450	 6.73225820064545E-02 
2451	 6.69223815202713E-02 
2452	 6.69242814183235E-02 
2453	 0.066720224916935 
2454	 6.66511356830597E-02 
2455	 6.71208500862122E-02 
2456	 6.69173151254654E-02 
2457	 6.68507069349289E-02 
2458	 6.74818307161331E-02 
2459	 6.76903426647186E-02 
2460	 6.82623162865639E-02 
2461	 6.91183283925056E-02 
2462	 6.89423903822899E-02 
2463	 6.89016953110695E-02 
2464	 6.78239017724991E-02 
2465	 6.73981010913849E-02 
2466	 6.74849301576614E-02 
2467	 0.067532904446125 
2468	 6.82436153292656E-02 
2469	 6.84406459331512E-02 
2470	 6.79437816143036E-02 
2471	 6.80215582251549E-02 
2472	 0.068326361477375 
2473	 6.84325024485588E-02 
2474	 6.91743791103363E-02 
2475	 6.91874474287033E-02 
2476	 6.80770874023438E-02 
2477	 6.77614137530327E-02 
2478	 6.74981251358986E-02 
2479	 6.74614682793617E-02 
2480	 6.81447982788086E-02 
2481	 6.84754848480225E-02 
2482	 6.86861723661423E-02 
2483	 6.88730925321579E-02 
2484	 6.92461207509041E-02 
2485	 6.90992400050163E-02 
2486	 0.068172499537468 
2487	 6.81479424238205E-02 
2488	 6.83968588709831E-02 
2489	 6.84097856283188E-02 
2490	 6.90600425004959E-02 
2491	 6.92215412855148E-02 
2492	 6.85304701328278E-02 
2493	 6.85457959771156E-02 
2494	 6.91151022911072E-02 
2495	 6.92596361041069E-02 
2496	 6.93769007921219E-02 
2497	 6.95164576172829E-02 
2498	 0.069349393248558 
2499	 6.95821270346642E-02 
2500	 7.02040418982506E-02 
