
Text conversion of header file \A_MEDIDAS\PROJETOS\BRASIL\BLOCO GAVIAO\JACOBINA\CANIF27\sco\CANIF27_018.45_00000.asd.ref
 -------------------------------------------------------------
Falhada                                                                                                                                                     
The instrument number was  16586/1
New ASD spectrum file: Program version = 6.00 file version = 1.00
Spectrum saved: 10/16/2018 at 10:02:09
VNIR integration time : 34
VNIR channel 1 wavelength = 350 wavelength step = 1
There were 50 samples per data value
xmin = 350 xmax= 2500
ymin= 0 ymax= 1.25
The instrument digitizes spectral values to 16 bits
SWIR1 gain was 214 offset was 2097
SWIR2 gain was 513 offset was 2267
Join between VNIR and SWIR1 was 1000 nm
Join between SWIR1 and SWIR2 was 1830 nm
Absolute Reflectance is Enabled
The Absolute Reflectance File is abs165861.ref
VNIR dark signal subtracted
50 dark measurements taken Tue Oct 16 09:52:54 2018
DCC value was 0
Data is compared to a white reference:
60 white reference measurements taken Tue Oct 16 09:53:02 2018
There was no foreoptic attached
Spectrum file is reflectance data
GPS-Latitude is S0
GPS-Longitude is E0
GPS-Altitude is 0
GPS-UTC is Wed Dec 31 17:00:00 1969

Smart Detector
Serial#  0
Signal (A)  0.000E00
Dark (A)  0.000E00
Ref (A)  0.000E00
Status  0 - Uninitialized
Gain  E-4
Averaging  0
Temp (C)  0.0
Humid (%)  0.0

Reflectance Absolute
Wavelength	CANIF27_18.45_00000.asd.ref
350	 0.134076312184334 
351	 0.124547943472862 
352	 0.128482818603516 
353	 0.13575667142868 
354	 0.136458694934845 
355	 0.130742788314819 
356	 0.135334849357605 
357	 0.139750495553017 
358	 0.132205218076706 
359	 0.13443586230278 
360	 0.139828771352768 
361	 0.142509266734123 
362	 0.139114856719971 
363	 0.134218603372574 
364	 0.134915620088577 
365	 0.141277834773064 
366	 0.144375383853912 
367	 0.136988997459412 
368	 0.13266633450985 
369	 0.140343695878983 
370	 0.142473638057709 
371	 0.141344502568245 
372	 0.139426678419113 
373	 0.138690203428268 
374	 0.136893004179001 
375	 0.137696459889412 
376	 0.140148609876633 
377	 0.138615906238556 
378	 0.139964506030083 
379	 0.142166540026665 
380	 0.14260596036911 
381	 0.140726447105408 
382	 0.141525834798813 
383	 0.142904371023178 
384	 0.14154414832592 
385	 0.143083333969116 
386	 0.144554406404495 
387	 0.145010530948639 
388	 0.145712971687317 
389	 0.147307023406029 
390	 0.147607728838921 
391	 0.14607284963131 
392	 0.146266728639603 
393	 0.147021681070328 
394	 0.14749813079834 
395	 0.147306188941002 
396	 0.147737309336662 
397	 0.149259552359581 
398	 0.150668904185295 
399	 0.1498793810606 
400	 0.149690791964531 
401	 0.149804145097733 
402	 0.149850577116013 
403	 0.150215178728104 
404	 0.1496342420578 
405	 0.149752110242844 
406	 0.151661217212677 
407	 0.150714516639709 
408	 0.150951042771339 
409	 0.152600079774857 
410	 0.153221279382706 
411	 0.152972638607025 
412	 0.152704283595085 
413	 0.153101235628128 
414	 0.154460415244102 
415	 0.155491426587105 
416	 0.155680954456329 
417	 0.155263349413872 
418	 0.156084954738617 
419	 0.156850054860115 
420	 0.157351091504097 
421	 0.158059418201447 
422	 0.15849681198597 
423	 0.159361302852631 
424	 0.160549804568291 
425	 0.16057762503624 
426	 0.161353290081024 
427	 0.162225127220154 
428	 0.162431940436363 
429	 0.16333469748497 
430	 0.163917258381844 
431	 0.164105460047722 
432	 0.164449661970139 
433	 0.165270611643791 
434	 0.165941804647446 
435	 0.166437685489655 
436	 0.167849913239479 
437	 0.16813100874424 
438	 0.168388471007347 
439	 0.16976124048233 
440	 0.170286893844604 
441	 0.170915156602859 
442	 0.171665459871292 
443	 0.17198471724987 
444	 0.172413095831871 
445	 0.172847211360931 
446	 0.173190578818321 
447	 0.173483818769455 
448	 0.173818618059158 
449	 0.174098268151283 
450	 0.174249365925789 
451	 0.174526587128639 
452	 0.174786448478699 
453	 0.174975216388702 
454	 0.175134614109993 
455	 0.175540626049042 
456	 0.175899222493172 
457	 0.176105320453644 
458	 0.176572978496552 
459	 0.176987588405609 
460	 0.177340492606163 
461	 0.177705064415932 
462	 0.178044453263283 
463	 0.178369164466858 
464	 0.17872342467308 
465	 0.179163977503777 
466	 0.179477259516716 
467	 0.179887115955353 
468	 0.180449709296227 
469	 0.18064458668232 
470	 0.181015029549599 
471	 0.181492194533348 
472	 0.18179726600647 
473	 0.18193781375885 
474	 0.182204276323318 
475	 0.18267560005188 
476	 0.18318185210228 
477	 0.183664992451668 
478	 0.184149175882339 
479	 0.184639260172844 
480	 0.184999898076057 
481	 0.185499265789986 
482	 0.186054930090904 
483	 0.186454951763153 
484	 0.186956867575645 
485	 0.187513500452042 
486	 0.188009709119797 
487	 0.188280031085014 
488	 0.188894033432007 
489	 0.18945749104023 
490	 0.189601466059685 
491	 0.189928486943245 
492	 0.190247401595116 
493	 0.190458133816719 
494	 0.190551653504372 
495	 0.190752476453781 
496	 0.19114987552166 
497	 0.191680192947388 
498	 0.19206628203392 
499	 0.192543506622314 
500	 0.193033963441849 
501	 0.193443298339844 
502	 0.194035410881042 
503	 0.194552168250084 
504	 0.19494366645813 
505	 0.195344269275665 
506	 0.195801854133606 
507	 0.196191519498825 
508	 0.19646792113781 
509	 0.196818649768829 
510	 0.197094604372978 
511	 0.19737209379673 
512	 0.197760984301567 
513	 0.198090001940727 
514	 0.198376268148422 
515	 0.198643922805786 
516	 0.19890983402729 
517	 0.199106320738792 
518	 0.199364051222801 
519	 0.199734479188919 
520	 0.199962630867958 
521	 0.200163319706917 
522	 0.200338035821915 
523	 0.200450196862221 
524	 0.200565963983536 
525	 0.200743988156319 
526	 0.200969055294991 
527	 0.201135888695717 
528	 0.201288834214211 
529	 0.201426595449448 
530	 0.201541841030121 
531	 0.201630815863609 
532	 0.201772779226303 
533	 0.201945468783379 
534	 0.202072590589523 
535	 0.202249139547348 
536	 0.202452346682549 
537	 0.202634289860725 
538	 0.202722787857056 
539	 0.202899754047394 
540	 0.203103452920914 
541	 0.203251928091049 
542	 0.203554451465607 
543	 0.203802362084389 
544	 0.203983157873154 
545	 0.204249024391174 
546	 0.204423367977142 
547	 0.204600796103477 
548	 0.204818069934845 
549	 0.204875469207764 
550	 0.204947516322136 
551	 0.205081894993782 
552	 0.20526747405529 
553	 0.205485090613365 
554	 0.20555180311203 
555	 0.205494597554207 
556	 0.205568477511406 
557	 0.205657556653023 
558	 0.205796211957932 
559	 0.206017374992371 
560	 0.206291109323502 
561	 0.206483274698257 
562	 0.206526830792427 
563	 0.206439167261124 
564	 0.206529498100281 
565	 0.206672966480255 
566	 0.206766739487648 
567	 0.206807360053062 
568	 0.206767424941063 
569	 0.206680297851563 
570	 0.206584572792053 
571	 0.206459134817123 
572	 0.206364512443542 
573	 0.206307142972946 
574	 0.206265807151794 
575	 0.206380799412727 
576	 0.20656430721283 
577	 0.206721022725105 
578	 0.206806838512421 
579	 0.206876546144485 
580	 0.206908494234085 
581	 0.206854537129402 
582	 0.206653162837029 
583	 0.206467971205711 
584	 0.206321194767952 
585	 0.206101849675179 
586	 0.205774873495102 
587	 0.205524414777756 
588	 0.205510720610619 
589	 0.205797865986824 
590	 0.205968230962753 
591	 0.205941736698151 
592	 0.205785170197487 
593	 0.20545981824398 
594	 0.205160453915596 
595	 0.204962491989136 
596	 0.204790443181992 
597	 0.204494342207909 
598	 0.204090416431427 
599	 0.203650534152985 
600	 0.203279182314873 
601	 0.202919885516167 
602	 0.20253598690033 
603	 0.202119961380959 
604	 0.201818257570267 
605	 0.201595917344093 
606	 0.201412737369537 
607	 0.201245129108429 
608	 0.201076954603195 
609	 0.200841546058655 
610	 0.200530141592026 
611	 0.200351938605309 
612	 0.200123742222786 
613	 0.199800968170166 
614	 0.199435919523239 
615	 0.199091777205467 
616	 0.198866203427315 
617	 0.1987015157938 
618	 0.198299378156662 
619	 0.197978600859642 
620	 0.197730243206024 
621	 0.197474077343941 
622	 0.197235614061356 
623	 0.19697467982769 
624	 0.196664303541183 
625	 0.196302726864815 
626	 0.196004763245583 
627	 0.195716351270676 
628	 0.195416480302811 
629	 0.195192515850067 
630	 0.194882541894913 
631	 0.194523498415947 
632	 0.194210633635521 
633	 0.194009736180305 
634	 0.193717211484909 
635	 0.193332746624947 
636	 0.193017557263374 
637	 0.192766815423965 
638	 0.19249752163887 
639	 0.192179769277573 
640	 0.191908568143845 
641	 0.191609337925911 
642	 0.191323682665825 
643	 0.191091358661652 
644	 0.190762892365456 
645	 0.190461501479149 
646	 0.190214723348618 
647	 0.189962133765221 
648	 0.18964995443821 
649	 0.189390018582344 
650	 0.18921922147274 
651	 0.188985481858253 
652	 0.188658237457275 
653	 0.188344776630402 
654	 0.188145026564598 
655	 0.187880083918571 
656	 0.187647268176079 
657	 0.187432840466499 
658	 0.187140211462975 
659	 0.18690437078476 
660	 0.186690285801888 
661	 0.186462163925171 
662	 0.186232298612595 
663	 0.186029151082039 
664	 0.185818240046501 
665	 0.185568735003471 
666	 0.185361444950104 
667	 0.185130894184113 
668	 0.184871718287468 
669	 0.184629172086716 
670	 0.18444262444973 
671	 0.184234127402306 
672	 0.183979496359825 
673	 0.183772996068001 
674	 0.183589473366737 
675	 0.183400735259056 
676	 0.183192849159241 
677	 0.18301996588707 
678	 0.182820484042168 
679	 0.1826161891222 
680	 0.182468578219414 
681	 0.182249739766121 
682	 0.182018920779228 
683	 0.18181811273098 
684	 0.181628510355949 
685	 0.181489288806915 
686	 0.181351751089096 
687	 0.181183233857155 
688	 0.181084930896759 
689	 0.18094077706337 
690	 0.180758967995644 
691	 0.180612817406654 
692	 0.180503532290459 
693	 0.180379599332809 
694	 0.180245384573936 
695	 0.180173397064209 
696	 0.180060610175133 
697	 0.179961308836937 
698	 0.179906710982323 
699	 0.179779276251793 
700	 0.179650709033012 
701	 0.179573222994804 
702	 0.179559290409088 
703	 0.17945721745491 
704	 0.179372668266296 
705	 0.179332256317139 
706	 0.179281622171402 
707	 0.179279088973999 
708	 0.179224103689194 
709	 0.179107010364532 
710	 0.17913131415844 
711	 0.17913618683815 
712	 0.179123759269714 
713	 0.179121643304825 
714	 0.179057508707047 
715	 0.178991168737411 
716	 0.17897155880928 
717	 0.179018646478653 
718	 0.179004892706871 
719	 0.179045602679253 
720	 0.179126396775246 
721	 0.179049670696259 
722	 0.179065495729446 
723	 0.179154574871063 
724	 0.179230809211731 
725	 0.179187819361687 
726	 0.179219618439674 
727	 0.179290622472763 
728	 0.179304003715515 
729	 0.179349735379219 
730	 0.179398953914642 
731	 0.179448127746582 
732	 0.179513290524483 
733	 0.179543390870094 
734	 0.179623708128929 
735	 0.179775848984718 
736	 0.179900735616684 
737	 0.180086091160774 
738	 0.180215716362 
739	 0.180212989449501 
740	 0.180246472358704 
741	 0.180320858955383 
742	 0.180429220199585 
743	 0.180556923151016 
744	 0.180711790919304 
745	 0.180858820676804 
746	 0.180989757180214 
747	 0.181121632456779 
748	 0.181267186999321 
749	 0.181341245770454 
750	 0.181401431560516 
751	 0.181735098361969 
752	 0.181880161166191 
753	 0.181955575942993 
754	 0.182118847966194 
755	 0.182183086872101 
756	 0.182369396090508 
757	 0.182615458965302 
758	 0.182763412594795 
759	 0.1828303784132 
760	 0.182937309145927 
761	 0.183093428611755 
762	 0.183223068714142 
763	 0.183363437652588 
764	 0.183502793312073 
765	 0.183642417192459 
766	 0.183805629611015 
767	 0.183944150805473 
768	 0.184084936976433 
769	 0.184239998459816 
770	 0.184343695640564 
771	 0.184515029191971 
772	 0.184715300798416 
773	 0.184855937957764 
774	 0.184870958328247 
775	 0.184968844056129 
776	 0.185158297419548 
777	 0.185323774814606 
778	 0.185386285185814 
779	 0.185493245720863 
780	 0.185652568936348 
781	 0.185736238956451 
782	 0.18583932518959 
783	 0.185907766222954 
784	 0.185943812131882 
785	 0.1860591173172 
786	 0.186136350035667 
787	 0.186204090714455 
788	 0.186298534274101 
789	 0.186399638652802 
790	 0.186389163136482 
791	 0.18634344637394 
792	 0.18637926876545 
793	 0.186491444706917 
794	 0.18653616309166 
795	 0.186530977487564 
796	 0.186559647321701 
797	 0.18651182949543 
798	 0.186523571610451 
799	 0.186571404337883 
800	 0.18650971353054 
801	 0.186448097229004 
802	 0.18640710413456 
803	 0.186382204294205 
804	 0.186349645256996 
805	 0.186237066984177 
806	 0.186148628592491 
807	 0.186130508780479 
808	 0.186068460345268 
809	 0.185968935489655 
810	 0.185859024524689 
811	 0.185773462057114 
812	 0.185752958059311 
813	 0.185673579573631 
814	 0.18555161356926 
815	 0.185447588562965 
816	 0.185379177331924 
817	 0.185290992259979 
818	 0.185164228081703 
819	 0.185004726052284 
820	 0.184816285967827 
821	 0.184693545103073 
822	 0.184609264135361 
823	 0.184463933110237 
824	 0.184319332242012 
825	 0.184182956814766 
826	 0.184036776423454 
827	 0.183850973844528 
828	 0.183673113584518 
829	 0.183548092842102 
830	 0.183441057801247 
831	 0.183234617114067 
832	 0.183059886097908 
833	 0.182943642139435 
834	 0.182851672172546 
835	 0.182691872119904 
836	 0.182517111301422 
837	 0.182310149073601 
838	 0.182079568505287 
839	 0.18191197514534 
840	 0.181796342134476 
841	 0.181667625904083 
842	 0.181477308273315 
843	 0.181259885430336 
844	 0.181092396378517 
845	 0.180958181619644 
846	 0.180812746286392 
847	 0.180646345019341 
848	 0.180473417043686 
849	 0.180299654603004 
850	 0.18012098968029 
851	 0.179902881383896 
852	 0.179764688014984 
853	 0.179667696356773 
854	 0.179523274302483 
855	 0.179416701197624 
856	 0.179334312677383 
857	 0.17923004925251 
858	 0.179063975811005 
859	 0.178913414478302 
860	 0.178767576813698 
861	 0.178615540266037 
862	 0.178461506962776 
863	 0.178386315703392 
864	 0.178267240524292 
865	 0.178103476762772 
866	 0.177989706397057 
867	 0.17792035639286 
868	 0.177838355302811 
869	 0.177736103534698 
870	 0.177646666765213 
871	 0.177537262439728 
872	 0.17743244767189 
873	 0.177333503961563 
874	 0.17722861468792 
875	 0.177230075001717 
876	 0.177168697118759 
877	 0.177004024386406 
878	 0.176863208413124 
879	 0.176947951316833 
880	 0.176950573921204 
881	 0.176832318305969 
882	 0.176844283938408 
883	 0.176779866218567 
884	 0.176725700497627 
885	 0.176699295639992 
886	 0.176623240113258 
887	 0.176514208316803 
888	 0.176505252718925 
889	 0.17655973136425 
890	 0.1764957010746 
891	 0.176499217748642 
892	 0.176485627889633 
893	 0.176484286785126 
894	 0.17661814391613 
895	 0.176602691411972 
896	 0.176530778408051 
897	 0.176493749022484 
898	 0.176517024636269 
899	 0.176495283842087 
900	 0.176511496305466 
901	 0.176545843482018 
902	 0.176506251096725 
903	 0.176557049155235 
904	 0.17664048075676 
905	 0.176680997014046 
906	 0.176644280552864 
907	 0.176706284284592 
908	 0.176770493388176 
909	 0.176789551973343 
910	 0.176793962717056 
911	 0.176930651068687 
912	 0.177064970135689 
913	 0.17711965739727 
914	 0.177117332816124 
915	 0.177290663123131 
916	 0.177380219101906 
917	 0.177400469779968 
918	 0.177485540509224 
919	 0.177565887570381 
920	 0.177595794200897 
921	 0.177649840712547 
922	 0.17779965698719 
923	 0.177915170788765 
924	 0.178073689341545 
925	 0.178229570388794 
926	 0.17834061384201 
927	 0.178500264883041 
928	 0.178614914417267 
929	 0.178653910756111 
930	 0.178678721189499 
931	 0.178881540894508 
932	 0.17900313436985 
933	 0.179121941328049 
934	 0.17931666970253 
935	 0.179522961378098 
936	 0.17966739833355 
937	 0.179807126522064 
938	 0.179955065250397 
939	 0.180051684379578 
940	 0.180252224206924 
941	 0.180405125021935 
942	 0.180464372038841 
943	 0.180524796247482 
944	 0.180612936615944 
945	 0.180801600217819 
946	 0.181020393967628 
947	 0.181136965751648 
948	 0.181204244494438 
949	 0.181307837367058 
950	 0.181492298841476 
951	 0.181729272007942 
952	 0.181841284036636 
953	 0.182043209671974 
954	 0.182213649153709 
955	 0.182261109352112 
956	 0.182421684265137 
957	 0.182595580816269 
958	 0.182735085487366 
959	 0.182845562696457 
960	 0.182986184954643 
961	 0.183085635304451 
962	 0.183261007070541 
963	 0.18349102139473 
964	 0.183627054095268 
965	 0.183823138475418 
966	 0.183987036347389 
967	 0.184084489941597 
968	 0.184157371520996 
969	 0.184325262904167 
970	 0.184452056884766 
971	 0.184447303414345 
972	 0.184356451034546 
973	 0.184474721550941 
974	 0.184536561369896 
975	 0.184624075889587 
976	 0.184786111116409 
977	 0.184896513819695 
978	 0.18511937558651 
979	 0.185245200991631 
980	 0.185266733169556 
981	 0.185373023152351 
982	 0.185425698757172 
983	 0.185466721653938 
984	 0.18553102016449 
985	 0.185612842440605 
986	 0.185608983039856 
987	 0.185655176639557 
988	 0.185798406600952 
989	 0.185986787080765 
990	 0.186072304844856 
991	 0.186166107654572 
992	 0.186241194605827 
993	 0.186296179890633 
994	 0.186371982097626 
995	 0.186465322971344 
996	 0.186448097229004 
997	 0.186419129371643 
998	 0.186511024832726 
999	 0.186536684632301 
1000	 0.186529874801636 
1001	 0.176940992474556 
1002	 0.176948368549347 
1003	 0.177034735679626 
1004	 0.177131801843643 
1005	 0.177177622914314 
1006	 0.177231192588806 
1007	 0.177190497517586 
1008	 0.177191495895386 
1009	 0.177233144640923 
1010	 0.177324593067169 
1011	 0.177349090576172 
1012	 0.177373453974724 
1013	 0.177411571145058 
1014	 0.177399083971977 
1015	 0.177423596382141 
1016	 0.177529737353325 
1017	 0.177574202418327 
1018	 0.177459910511971 
1019	 0.177472352981567 
1020	 0.177506282925606 
1021	 0.177425801753998 
1022	 0.177448868751526 
1023	 0.177451610565186 
1024	 0.177415460348129 
1025	 0.177324295043945 
1026	 0.177262932062149 
1027	 0.177149191498756 
1028	 0.177140384912491 
1029	 0.177160620689392 
1030	 0.177220731973648 
1031	 0.177383109927177 
1032	 0.177536219358444 
1033	 0.177530616521835 
1034	 0.177484318614006 
1035	 0.177463501691818 
1036	 0.177391335368156 
1037	 0.177337646484375 
1038	 0.17734257876873 
1039	 0.17729389667511 
1040	 0.17714524269104 
1041	 0.177081257104874 
1042	 0.177061051130295 
1043	 0.17702017724514 
1044	 0.176972687244415 
1045	 0.177016496658325 
1046	 0.17698261141777 
1047	 0.176941335201263 
1048	 0.176938340067863 
1049	 0.176925674080849 
1050	 0.176960289478302 
1051	 0.1769859790802 
1052	 0.176975607872009 
1053	 0.17688974738121 
1054	 0.176828861236572 
1055	 0.176733136177063 
1056	 0.176674947142601 
1057	 0.176640599966049 
1058	 0.176599591970444 
1059	 0.176548406481743 
1060	 0.176470056176186 
1061	 0.176374226808548 
1062	 0.176326066255569 
1063	 0.176360890269279 
1064	 0.176342576742172 
1065	 0.176276624202728 
1066	 0.176293909549713 
1067	 0.176292061805725 
1068	 0.17625992000103 
1069	 0.176228582859039 
1070	 0.176238566637039 
1071	 0.176199465990067 
1072	 0.176098138093948 
1073	 0.176033660769463 
1074	 0.176037579774857 
1075	 0.176024675369263 
1076	 0.176068112254143 
1077	 0.176138013601303 
1078	 0.176161751151085 
1079	 0.176189690828323 
1080	 0.176176145672798 
1081	 0.176100581884384 
1082	 0.176064014434814 
1083	 0.176097422838211 
1084	 0.176127538084984 
1085	 0.176222890615463 
1086	 0.176298186182976 
1087	 0.176398441195488 
1088	 0.176413491368294 
1089	 0.176459789276123 
1090	 0.176454693078995 
1091	 0.176406040787697 
1092	 0.176412746310234 
1093	 0.176452860236168 
1094	 0.176558300852776 
1095	 0.176717206835747 
1096	 0.176834508776665 
1097	 0.17686727643013 
1098	 0.176903113722801 
1099	 0.176977202296257 
1100	 0.177018761634827 
1101	 0.177065923810005 
1102	 0.177139833569527 
1103	 0.177219599485397 
1104	 0.17726369202137 
1105	 0.177323654294014 
1106	 0.177419096231461 
1107	 0.177506998181343 
1108	 0.177562206983566 
1109	 0.177651181817055 
1110	 0.177708312869072 
1111	 0.177704215049744 
1112	 0.177784144878387 
1113	 0.177830055356026 
1114	 0.177847743034363 
1115	 0.17799574136734 
1116	 0.178074389696121 
1117	 0.178122028708458 
1118	 0.178152978420258 
1119	 0.178218618035316 
1120	 0.1781986951828 
1121	 0.178237721323967 
1122	 0.178313910961151 
1123	 0.178389951586723 
1124	 0.178483486175537 
1125	 0.178552716970444 
1126	 0.178611621260643 
1127	 0.178711101412773 
1128	 0.1788060516119 
1129	 0.178873419761658 
1130	 0.178999960422516 
1131	 0.179103150963783 
1132	 0.179187223315239 
1133	 0.179278254508972 
1134	 0.179348692297935 
1135	 0.179367735981941 
1136	 0.179419577121735 
1137	 0.179507628083229 
1138	 0.179576843976974 
1139	 0.179655447602272 
1140	 0.17975452542305 
1141	 0.17980107665062 
1142	 0.179848670959473 
1143	 0.179931238293648 
1144	 0.179955050349236 
1145	 0.180025964975357 
1146	 0.180140659213066 
1147	 0.18022309243679 
1148	 0.180336907505989 
1149	 0.18044476211071 
1150	 0.180546596646309 
1151	 0.180653378367424 
1152	 0.180771976709366 
1153	 0.180875152349472 
1154	 0.180978283286095 
1155	 0.18107981979847 
1156	 0.181184500455856 
1157	 0.181273087859154 
1158	 0.181369453668594 
1159	 0.181489631533623 
1160	 0.181629657745361 
1161	 0.181813955307007 
1162	 0.181996643543243 
1163	 0.182147637009621 
1164	 0.182327896356583 
1165	 0.182520851492882 
1166	 0.182683452963829 
1167	 0.182845383882523 
1168	 0.183013468980789 
1169	 0.18315464258194 
1170	 0.183305352926254 
1171	 0.183539211750031 
1172	 0.183747887611389 
1173	 0.183934435248375 
1174	 0.184093862771988 
1175	 0.184217020869255 
1176	 0.184381037950516 
1177	 0.184570804238319 
1178	 0.184766113758087 
1179	 0.184992969036102 
1180	 0.185197398066521 
1181	 0.185365244746208 
1182	 0.185556948184967 
1183	 0.185741126537323 
1184	 0.185878783464432 
1185	 0.186060890555382 
1186	 0.186276659369469 
1187	 0.186498776078224 
1188	 0.186732903122902 
1189	 0.186978325247765 
1190	 0.187226474285126 
1191	 0.187428921461105 
1192	 0.187609598040581 
1193	 0.187779605388641 
1194	 0.187946900725365 
1195	 0.188139408826828 
1196	 0.188354134559631 
1197	 0.188584610819817 
1198	 0.188798472285271 
1199	 0.188990220427513 
1200	 0.189164698123932 
1201	 0.18932469189167 
1202	 0.189519792795181 
1203	 0.189752250909805 
1204	 0.189962729811668 
1205	 0.190187186002731 
1206	 0.190408736467361 
1207	 0.190618947148323 
1208	 0.190814837813377 
1209	 0.191070839762688 
1210	 0.191304937005043 
1211	 0.191547974944115 
1212	 0.191815167665482 
1213	 0.19201248884201 
1214	 0.192198649048805 
1215	 0.192400276660919 
1216	 0.19258189201355 
1217	 0.192794665694237 
1218	 0.193042978644371 
1219	 0.193273738026619 
1220	 0.193503677845001 
1221	 0.193727537989616 
1222	 0.193934604525566 
1223	 0.194165363907814 
1224	 0.194426447153091 
1225	 0.194651678204536 
1226	 0.194867119193077 
1227	 0.195090517401695 
1228	 0.195314809679985 
1229	 0.195505008101463 
1230	 0.195758044719696 
1231	 0.196032300591469 
1232	 0.196296900510788 
1233	 0.196587309241295 
1234	 0.196831583976746 
1235	 0.197107627987862 
1236	 0.197371289134026 
1237	 0.197583004832268 
1238	 0.197822526097298 
1239	 0.198074519634247 
1240	 0.198309868574142 
1241	 0.198561608791351 
1242	 0.198764279484749 
1243	 0.198904260993004 
1244	 0.19912850856781 
1245	 0.199348852038383 
1246	 0.199593588709831 
1247	 0.199908122420311 
1248	 0.200219422578812 
1249	 0.200458273291588 
1250	 0.200686231255531 
1251	 0.200923666357994 
1252	 0.20114740729332 
1253	 0.201357141137123 
1254	 0.201618149876595 
1255	 0.2019052952528 
1256	 0.202142223715782 
1257	 0.202401801943779 
1258	 0.202665060758591 
1259	 0.202919721603394 
1260	 0.203168854117393 
1261	 0.20342130959034 
1262	 0.203671216964722 
1263	 0.203911304473877 
1264	 0.204141348600388 
1265	 0.204372316598892 
1266	 0.204605892300606 
1267	 0.204837396740913 
1268	 0.205041453242302 
1269	 0.205282956361771 
1270	 0.205550283193588 
1271	 0.205806091427803 
1272	 0.206064388155937 
1273	 0.206335917115211 
1274	 0.206567153334618 
1275	 0.206796407699585 
1276	 0.207062721252441 
1277	 0.207326307892799 
1278	 0.207555055618286 
1279	 0.207772850990295 
1280	 0.208022654056549 
1281	 0.208269387483597 
1282	 0.208527088165283 
1283	 0.208831831812859 
1284	 0.209098130464554 
1285	 0.209334433078766 
1286	 0.209591552615166 
1287	 0.209862753748894 
1288	 0.210107639431953 
1289	 0.210340932011604 
1290	 0.210585370659828 
1291	 0.21081916987896 
1292	 0.211047038435936 
1293	 0.211310461163521 
1294	 0.211568608880043 
1295	 0.211803555488586 
1296	 0.212035790085793 
1297	 0.212216466665268 
1298	 0.212381973862648 
1299	 0.21258632838726 
1300	 0.21281173825264 
1301	 0.213105082511902 
1302	 0.21338352560997 
1303	 0.213626191020012 
1304	 0.213830381631851 
1305	 0.214071601629257 
1306	 0.214295044541359 
1307	 0.21454918384552 
1308	 0.214830711483955 
1309	 0.215117827057838 
1310	 0.215409860014915 
1311	 0.21571746468544 
1312	 0.21606208384037 
1313	 0.216377004981041 
1314	 0.216662243008614 
1315	 0.216989889740944 
1316	 0.217323318123817 
1317	 0.217675909399986 
1318	 0.218061938881874 
1319	 0.218423560261726 
1320	 0.218737483024597 
1321	 0.219052523374557 
1322	 0.219376295804977 
1323	 0.219697177410126 
1324	 0.220030605792999 
1325	 0.22035925090313 
1326	 0.22066205739975 
1327	 0.220917776226997 
1328	 0.221224293112755 
1329	 0.221548050642014 
1330	 0.221860498189926 
1331	 0.222186058759689 
1332	 0.222502782940865 
1333	 0.222806423902512 
1334	 0.223100185394287 
1335	 0.223407238721848 
1336	 0.223697260022163 
1337	 0.22393798828125 
1338	 0.224221020936966 
1339	 0.224552541971207 
1340	 0.224819839000702 
1341	 0.225058287382126 
1342	 0.225321173667908 
1343	 0.225551545619965 
1344	 0.225757569074631 
1345	 0.226048320531845 
1346	 0.226343676447868 
1347	 0.22660356760025 
1348	 0.226899549365044 
1349	 0.227133974432945 
1350	 0.227346047759056 
1351	 0.227580443024635 
1352	 0.227790474891663 
1353	 0.228026539087296 
1354	 0.228308856487274 
1355	 0.228543356060982 
1356	 0.228758588433266 
1357	 0.229001015424728 
1358	 0.229215085506439 
1359	 0.229467451572418 
1360	 0.229765519499779 
1361	 0.230032354593277 
1362	 0.230329170823097 
1363	 0.230569809675217 
1364	 0.230752885341644 
1365	 0.230967670679092 
1366	 0.231158301234245 
1367	 0.231366619467735 
1368	 0.231604754924774 
1369	 0.231832578778267 
1370	 0.232049480080605 
1371	 0.232241630554199 
1372	 0.232404053211212 
1373	 0.232581704854965 
1374	 0.232778772711754 
1375	 0.232938796281815 
1376	 0.233101084828377 
1377	 0.233265548944473 
1378	 0.23338320851326 
1379	 0.233477994799614 
1380	 0.233480378985405 
1381	 0.233480527997017 
1382	 0.23328323662281 
1383	 0.232994988560677 
1384	 0.232532486319542 
1385	 0.231896236538887 
1386	 0.231200560927391 
1387	 0.230309247970581 
1388	 0.22950667142868 
1389	 0.228597015142441 
1390	 0.227830141782761 
1391	 0.227058455348015 
1392	 0.226470962166786 
1393	 0.225949019193649 
1394	 0.225609630346298 
1395	 0.225453495979309 
1396	 0.225365698337555 
1397	 0.225459977984428 
1398	 0.225566029548645 
1399	 0.225747525691986 
1400	 0.225964248180389 
1401	 0.226222157478333 
1402	 0.226470232009888 
1403	 0.226749375462532 
1404	 0.227035731077194 
1405	 0.227307066321373 
1406	 0.227624997496605 
1407	 0.227944314479828 
1408	 0.228297412395477 
1409	 0.22872006893158 
1410	 0.229137510061264 
1411	 0.229624450206757 
1412	 0.230168059468269 
1413	 0.230740666389465 
1414	 0.23136380314827 
1415	 0.231998965144157 
1416	 0.232673242688179 
1417	 0.233339801430702 
1418	 0.234060078859329 
1419	 0.23470576107502 
1420	 0.235343486070633 
1421	 0.235931351780891 
1422	 0.236475870013237 
1423	 0.236981004476547 
1424	 0.237478345632553 
1425	 0.237880140542984 
1426	 0.238192319869995 
1427	 0.238497376441956 
1428	 0.238723739981651 
1429	 0.238970935344696 
1430	 0.239221602678299 
1431	 0.239439889788628 
1432	 0.239634826779366 
1433	 0.239820897579193 
1434	 0.239973783493042 
1435	 0.240141183137894 
1436	 0.240316092967987 
1437	 0.240479916334152 
1438	 0.240652367472649 
1439	 0.240815654397011 
1440	 0.240957617759705 
1441	 0.241101130843163 
1442	 0.241254195570946 
1443	 0.241420075297356 
1444	 0.241608679294586 
1445	 0.241814792156219 
1446	 0.242049723863602 
1447	 0.242320194840431 
1448	 0.242567867040634 
1449	 0.242828592658043 
1450	 0.243095442652702 
1451	 0.243352085351944 
1452	 0.243615493178368 
1453	 0.243908733129501 
1454	 0.244169488549232 
1455	 0.24440111219883 
1456	 0.244651049375534 
1457	 0.2448890209198 
1458	 0.24516561627388 
1459	 0.245478212833405 
1460	 0.245770528912544 
1461	 0.246070444583893 
1462	 0.246369227766991 
1463	 0.246655896306038 
1464	 0.246943756937981 
1465	 0.247242972254753 
1466	 0.24754336476326 
1467	 0.247854307293892 
1468	 0.248133808374405 
1469	 0.248391851782799 
1470	 0.248669356107712 
1471	 0.248927742242813 
1472	 0.24919168651104 
1473	 0.249464750289917 
1474	 0.24975873529911 
1475	 0.250054031610489 
1476	 0.250364631414413 
1477	 0.250707894563675 
1478	 0.25101301074028 
1479	 0.251238852739334 
1480	 0.251486033201218 
1481	 0.251764714717865 
1482	 0.252009481191635 
1483	 0.25226217508316 
1484	 0.252513587474823 
1485	 0.252705246210098 
1486	 0.252917259931564 
1487	 0.253170698881149 
1488	 0.253376364707947 
1489	 0.253559589385986 
1490	 0.253780633211136 
1491	 0.254003584384918 
1492	 0.254232734441757 
1493	 0.254454135894775 
1494	 0.254702717065811 
1495	 0.25489154458046 
1496	 0.25503870844841 
1497	 0.255208909511566 
1498	 0.255365282297134 
1499	 0.255530476570129 
1500	 0.255712509155273 
1501	 0.255857169628143 
1502	 0.25596958398819 
1503	 0.256118953227997 
1504	 0.256273746490479 
1505	 0.256420850753784 
1506	 0.256598591804504 
1507	 0.256728917360306 
1508	 0.2568119764328 
1509	 0.256924092769623 
1510	 0.25702029466629 
1511	 0.25715446472168 
1512	 0.257317185401917 
1513	 0.257469534873962 
1514	 0.257637858390808 
1515	 0.257807642221451 
1516	 0.257972121238709 
1517	 0.258143186569214 
1518	 0.258342653512955 
1519	 0.258508265018463 
1520	 0.258652210235596 
1521	 0.258804768323898 
1522	 0.258927404880524 
1523	 0.259083062410355 
1524	 0.259281694889069 
1525	 0.25944459438324 
1526	 0.259590297937393 
1527	 0.259757936000824 
1528	 0.259917020797729 
1529	 0.260074138641357 
1530	 0.260239601135254 
1531	 0.260432630777359 
1532	 0.260602414608002 
1533	 0.260756105184555 
1534	 0.260940432548523 
1535	 0.261131137609482 
1536	 0.261298149824142 
1537	 0.261484116315842 
1538	 0.261683017015457 
1539	 0.261841595172882 
1540	 0.262022525072098 
1541	 0.262243986129761 
1542	 0.262421846389771 
1543	 0.262598395347595 
1544	 0.262792021036148 
1545	 0.262968301773071 
1546	 0.263169318437576 
1547	 0.263381689786911 
1548	 0.263555318117142 
1549	 0.263702064752579 
1550	 0.263878345489502 
1551	 0.264081299304962 
1552	 0.264286488294601 
1553	 0.264522939920425 
1554	 0.264749556779861 
1555	 0.264953255653381 
1556	 0.265176743268967 
1557	 0.265404969453812 
1558	 0.265635907649994 
1559	 0.265857815742493 
1560	 0.266084522008896 
1561	 0.266350269317627 
1562	 0.266607314348221 
1563	 0.266848653554916 
1564	 0.26712492108345 
1565	 0.267386257648468 
1566	 0.267600536346436 
1567	 0.267846524715424 
1568	 0.268097251653671 
1569	 0.268334567546844 
1570	 0.268572390079498 
1571	 0.268842488527298 
1572	 0.269086003303528 
1573	 0.269296169281006 
1574	 0.269539505243301 
1575	 0.269798398017883 
1576	 0.270039707422256 
1577	 0.270285546779633 
1578	 0.270531952381134 
1579	 0.270759850740433 
1580	 0.271012485027313 
1581	 0.27128678560257 
1582	 0.271537303924561 
1583	 0.271789133548737 
1584	 0.272045969963074 
1585	 0.272278070449829 
1586	 0.272548854351044 
1587	 0.272841423749924 
1588	 0.273136734962463 
1589	 0.273470938205719 
1590	 0.273766994476318 
1591	 0.274049460887909 
1592	 0.27432718873024 
1593	 0.274570375680923 
1594	 0.274850010871887 
1595	 0.275158107280731 
1596	 0.275440216064453 
1597	 0.275728434324265 
1598	 0.275997698307037 
1599	 0.276225745677948 
1600	 0.276502162218094 
1601	 0.276816517114639 
1602	 0.277089089155197 
1603	 0.277360558509827 
1604	 0.277617037296295 
1605	 0.277842372655869 
1606	 0.278084635734558 
1607	 0.278336226940155 
1608	 0.278586149215698 
1609	 0.27882319688797 
1610	 0.279066652059555 
1611	 0.279307007789612 
1612	 0.279566824436188 
1613	 0.279857128858566 
1614	 0.280106484889984 
1615	 0.280334323644638 
1616	 0.280599683523178 
1617	 0.280852556228638 
1618	 0.281135648488998 
1619	 0.281467407941818 
1620	 0.281779199838638 
1621	 0.282084792852402 
1622	 0.282379508018494 
1623	 0.282685816287994 
1624	 0.282971262931824 
1625	 0.283241510391235 
1626	 0.283511281013489 
1627	 0.283771395683289 
1628	 0.284027546644211 
1629	 0.284262746572495 
1630	 0.284514278173447 
1631	 0.284769862890244 
1632	 0.285027086734772 
1633	 0.285308599472046 
1634	 0.285564035177231 
1635	 0.285813570022583 
1636	 0.286048620939255 
1637	 0.286249160766602 
1638	 0.286469697952271 
1639	 0.286687105894089 
1640	 0.286912620067596 
1641	 0.287161737680435 
1642	 0.287395864725113 
1643	 0.287615805864334 
1644	 0.287843763828278 
1645	 0.288066864013672 
1646	 0.288303792476654 
1647	 0.288534700870514 
1648	 0.28880774974823 
1649	 0.289129465818405 
1650	 0.289415955543518 
1651	 0.289716511964798 
1652	 0.289995133876801 
1653	 0.290235787630081 
1654	 0.2904914021492 
1655	 0.290765255689621 
1656	 0.291004002094269 
1657	 0.291230201721191 
1658	 0.291446805000305 
1659	 0.291636049747467 
1660	 0.291854470968246 
1661	 0.292067587375641 
1662	 0.29227539896965 
1663	 0.292486310005188 
1664	 0.292709439992905 
1665	 0.292947709560394 
1666	 0.293183237314224 
1667	 0.293413132429123 
1668	 0.293633878231049 
1669	 0.293853014707565 
1670	 0.294100522994995 
1671	 0.294380009174347 
1672	 0.294663280248642 
1673	 0.294921517372131 
1674	 0.295133173465729 
1675	 0.295313715934753 
1676	 0.295507401227951 
1677	 0.295736700296402 
1678	 0.295991748571396 
1679	 0.296229511499405 
1680	 0.296448260545731 
1681	 0.296654999256134 
1682	 0.296861946582794 
1683	 0.2971411049366 
1684	 0.297406196594238 
1685	 0.297642976045609 
1686	 0.29793855547905 
1687	 0.298166960477829 
1688	 0.298365235328674 
1689	 0.298610299825668 
1690	 0.298789262771606 
1691	 0.298943519592285 
1692	 0.299140363931656 
1693	 0.299335896968842 
1694	 0.299524962902069 
1695	 0.299718201160431 
1696	 0.299947649240494 
1697	 0.300226956605911 
1698	 0.300520688295364 
1699	 0.300856620073318 
1700	 0.301153153181076 
1701	 0.301326781511307 
1702	 0.301532626152039 
1703	 0.30178165435791 
1704	 0.302014142274857 
1705	 0.302271515130997 
1706	 0.302484840154648 
1707	 0.302634954452515 
1708	 0.302805960178375 
1709	 0.303015500307083 
1710	 0.303222864866257 
1711	 0.303412139415741 
1712	 0.303609013557434 
1713	 0.303839236497879 
1714	 0.304077237844467 
1715	 0.304315000772476 
1716	 0.304514467716217 
1717	 0.304617583751678 
1718	 0.304717838764191 
1719	 0.304853022098541 
1720	 0.305009573698044 
1721	 0.305199295282364 
1722	 0.305360406637192 
1723	 0.305538266897202 
1724	 0.305734187364578 
1725	 0.305939257144928 
1726	 0.306233048439026 
1727	 0.306450605392456 
1728	 0.30665796995163 
1729	 0.306854218244553 
1730	 0.306986480951309 
1731	 0.30716609954834 
1732	 0.307366579771042 
1733	 0.307536363601685 
1734	 0.30772465467453 
1735	 0.307894796133041 
1736	 0.308031797409058 
1737	 0.308188557624817 
1738	 0.308352440595627 
1739	 0.308556735515594 
1740	 0.30873915553093 
1741	 0.308906376361847 
1742	 0.309063017368317 
1743	 0.309207677841187 
1744	 0.309360176324844 
1745	 0.309554725885391 
1746	 0.309779018163681 
1747	 0.309936732053757 
1748	 0.310042679309845 
1749	 0.310153990983963 
1750	 0.310207903385162 
1751	 0.310276299715042 
1752	 0.310411691665649 
1753	 0.310520976781845 
1754	 0.310664385557175 
1755	 0.310840964317322 
1756	 0.310971260070801 
1757	 0.311087489128113 
1758	 0.311228722333908 
1759	 0.311345010995865 
1760	 0.311499327421188 
1761	 0.311722308397293 
1762	 0.311887174844742 
1763	 0.312046080827713 
1764	 0.312191694974899 
1765	 0.312300801277161 
1766	 0.312447309494019 
1767	 0.312586694955826 
1768	 0.312729835510254 
1769	 0.312871485948563 
1770	 0.312989920377731 
1771	 0.313149631023407 
1772	 0.313305705785751 
1773	 0.3134506046772 
1774	 0.313597917556763 
1775	 0.313712239265442 
1776	 0.313817083835602 
1777	 0.313911110162735 
1778	 0.313993394374847 
1779	 0.314087241888046 
1780	 0.314241260290146 
1781	 0.314433306455612 
1782	 0.314637541770935 
1783	 0.314822554588318 
1784	 0.315001517534256 
1785	 0.315152198076248 
1786	 0.315303504467011 
1787	 0.315440475940704 
1788	 0.315507799386978 
1789	 0.315563172101974 
1790	 0.315589308738709 
1791	 0.315594792366028 
1792	 0.315675497055054 
1793	 0.315797656774521 
1794	 0.315918177366257 
1795	 0.316081911325455 
1796	 0.316215932369232 
1797	 0.316300362348557 
1798	 0.316407978534698 
1799	 0.316524505615234 
1800	 0.316652327775955 
1801	 0.31678295135498 
1802	 0.316871672868729 
1803	 0.316929131746292 
1804	 0.316987633705139 
1805	 0.317068040370941 
1806	 0.317148625850677 
1807	 0.317229092121124 
1808	 0.317326456308365 
1809	 0.317386090755463 
1810	 0.317426562309265 
1811	 0.317442983388901 
1812	 0.317474365234375 
1813	 0.31750413775444 
1814	 0.317529618740082 
1815	 0.31757065653801 
1816	 0.317648023366928 
1817	 0.317705988883972 
1818	 0.317808359861374 
1819	 0.317933768033981 
1820	 0.318007975816727 
1821	 0.318117588758469 
1822	 0.318256050348282 
1823	 0.318380534648895 
1824	 0.318516433238983 
1825	 0.318602859973907 
1826	 0.318602025508881 
1827	 0.318600684404373 
1828	 0.318571984767914 
1829	 0.318568229675293 
1830	 0.318632304668427 
1831	 0.329473435878754 
1832	 0.3295037150383 
1833	 0.329515963792801 
1834	 0.329516500234604 
1835	 0.3294997215271 
1836	 0.329429745674133 
1837	 0.329367607831955 
1838	 0.329287946224213 
1839	 0.329200178384781 
1840	 0.329139649868011 
1841	 0.329128980636597 
1842	 0.329066842794418 
1843	 0.328994482755661 
1844	 0.328923135995865 
1845	 0.328777462244034 
1846	 0.328693002462387 
1847	 0.328676670789719 
1848	 0.328633189201355 
1849	 0.328443706035614 
1850	 0.328269422054291 
1851	 0.328054428100586 
1852	 0.327851831912994 
1853	 0.327683925628662 
1854	 0.327507972717285 
1855	 0.327349007129669 
1856	 0.327185481786728 
1857	 0.326984971761703 
1858	 0.326791614294052 
1859	 0.326624423265457 
1860	 0.326335549354553 
1861	 0.326027750968933 
1862	 0.325763940811157 
1863	 0.325487852096558 
1864	 0.325235217809677 
1865	 0.325028747320175 
1866	 0.324849218130112 
1867	 0.324678152799606 
1868	 0.324563354253769 
1869	 0.324552923440933 
1870	 0.324469566345215 
1871	 0.324258714914322 
1872	 0.324067384004593 
1873	 0.323836535215378 
1874	 0.32358917593956 
1875	 0.323431253433228 
1876	 0.323243379592896 
1877	 0.323036760091782 
1878	 0.322803944349289 
1879	 0.322558462619781 
1880	 0.322232574224472 
1881	 0.321908831596375 
1882	 0.321591377258301 
1883	 0.321291208267212 
1884	 0.321049928665161 
1885	 0.32086455821991 
1886	 0.320701450109482 
1887	 0.32051032781601 
1888	 0.320269197225571 
1889	 0.320023834705353 
1890	 0.319702595472336 
1891	 0.319383025169373 
1892	 0.319100826978683 
1893	 0.31878125667572 
1894	 0.318499624729156 
1895	 0.318169504404068 
1896	 0.317758351564407 
1897	 0.317370921373367 
1898	 0.316937565803528 
1899	 0.316516518592834 
1900	 0.31608510017395 
1901	 0.315672725439072 
1902	 0.315204590559006 
1903	 0.31476429104805 
1904	 0.314371407032013 
1905	 0.314069390296936 
1906	 0.313848823308945 
1907	 0.313632726669312 
1908	 0.313489377498627 
1909	 0.31337383389473 
1910	 0.313263386487961 
1911	 0.313118755817413 
1912	 0.313156306743622 
1913	 0.313346892595291 
1914	 0.313441842794418 
1915	 0.313610255718231 
1916	 0.313804596662521 
1917	 0.313825011253357 
1918	 0.313896358013153 
1919	 0.314009308815002 
1920	 0.314107298851013 
1921	 0.314297407865524 
1922	 0.31438934803009 
1923	 0.314432501792908 
1924	 0.314436912536621 
1925	 0.314503610134125 
1926	 0.314465045928955 
1927	 0.314479261636734 
1928	 0.314532577991486 
1929	 0.31449156999588 
1930	 0.314426124095917 
1931	 0.31436362862587 
1932	 0.31432232260704 
1933	 0.314267039299011 
1934	 0.314192652702332 
1935	 0.314159274101257 
1936	 0.314166039228439 
1937	 0.314127266407013 
1938	 0.314100742340088 
1939	 0.314005821943283 
1940	 0.313850939273834 
1941	 0.313705623149872 
1942	 0.313508331775665 
1943	 0.313289523124695 
1944	 0.313055872917175 
1945	 0.312739789485931 
1946	 0.312508076429367 
1947	 0.312297999858856 
1948	 0.31210395693779 
1949	 0.31195342540741 
1950	 0.311796903610229 
1951	 0.311566442251205 
1952	 0.31137216091156 
1953	 0.31121289730072 
1954	 0.311078399419785 
1955	 0.311079055070877 
1956	 0.311136871576309 
1957	 0.311104625463486 
1958	 0.311065226793289 
1959	 0.311013013124466 
1960	 0.310913801193237 
1961	 0.310753405094147 
1962	 0.310656815767288 
1963	 0.310645997524261 
1964	 0.310557633638382 
1965	 0.310475558042526 
1966	 0.310441941022873 
1967	 0.310290515422821 
1968	 0.310126274824142 
1969	 0.309915125370026 
1970	 0.309729695320129 
1971	 0.30951863527298 
1972	 0.309311032295227 
1973	 0.309100449085236 
1974	 0.308933317661285 
1975	 0.308716893196106 
1976	 0.308412730693817 
1977	 0.308227598667145 
1978	 0.308088779449463 
1979	 0.30783548951149 
1980	 0.307653188705444 
1981	 0.307501882314682 
1982	 0.307327568531036 
1983	 0.307150512933731 
1984	 0.30702605843544 
1985	 0.306931644678116 
1986	 0.30682510137558 
1987	 0.306728273630142 
1988	 0.306698679924011 
1989	 0.306787103414536 
1990	 0.306823968887329 
1991	 0.306772440671921 
1992	 0.306764423847198 
1993	 0.306767225265503 
1994	 0.306843221187592 
1995	 0.307010173797607 
1996	 0.307121574878693 
1997	 0.307232946157455 
1998	 0.307397037744522 
1999	 0.30753692984581 
2000	 0.307710379362106 
2001	 0.308027595281601 
2002	 0.308379173278809 
2003	 0.308625876903534 
2004	 0.308932393789291 
2005	 0.309273689985275 
2006	 0.309605568647385 
2007	 0.310015141963959 
2008	 0.310484707355499 
2009	 0.310980707406998 
2010	 0.311553925275803 
2011	 0.312135368585587 
2012	 0.31275075674057 
2013	 0.313394546508789 
2014	 0.314023733139038 
2015	 0.314504593610764 
2016	 0.315051287412643 
2017	 0.315726399421692 
2018	 0.316463738679886 
2019	 0.317235469818115 
2020	 0.317942887544632 
2021	 0.318571627140045 
2022	 0.319339603185654 
2023	 0.32016709446907 
2024	 0.320953130722046 
2025	 0.321822702884674 
2026	 0.322652101516724 
2027	 0.32341742515564 
2028	 0.324178248643875 
2029	 0.325075685977936 
2030	 0.325918555259705 
2031	 0.326651453971863 
2032	 0.32744300365448 
2033	 0.328248172998428 
2034	 0.329054087400436 
2035	 0.329856514930725 
2036	 0.330760180950165 
2037	 0.331515312194824 
2038	 0.332168221473694 
2039	 0.332834243774414 
2040	 0.333415418863297 
2041	 0.334056973457336 
2042	 0.334716141223907 
2043	 0.335393786430359 
2044	 0.336037933826447 
2045	 0.336667627096176 
2046	 0.337240695953369 
2047	 0.337745308876038 
2048	 0.338255643844604 
2049	 0.338708013296127 
2050	 0.339246600866318 
2051	 0.339810490608215 
2052	 0.340353459119797 
2053	 0.34100341796875 
2054	 0.341508060693741 
2055	 0.341897696256638 
2056	 0.342326432466507 
2057	 0.34271901845932 
2058	 0.343065917491913 
2059	 0.343483209609985 
2060	 0.343937307596207 
2061	 0.344398111104965 
2062	 0.344829380512238 
2063	 0.345180094242096 
2064	 0.34545823931694 
2065	 0.345792174339294 
2066	 0.346095889806747 
2067	 0.346426993608475 
2068	 0.346827894449234 
2069	 0.347176432609558 
2070	 0.34744068980217 
2071	 0.347762078046799 
2072	 0.348121672868729 
2073	 0.348476022481918 
2074	 0.348724067211151 
2075	 0.34909063577652 
2076	 0.349461376667023 
2077	 0.349716752767563 
2078	 0.350011676549912 
2079	 0.350359588861465 
2080	 0.350625991821289 
2081	 0.350812673568726 
2082	 0.351005792617798 
2083	 0.351158738136292 
2084	 0.351324498653412 
2085	 0.351501107215881 
2086	 0.351638078689575 
2087	 0.351801604032516 
2088	 0.351919442415237 
2089	 0.351974487304688 
2090	 0.351959705352783 
2091	 0.352093935012817 
2092	 0.352179229259491 
2093	 0.352290242910385 
2094	 0.352321743965149 
2095	 0.352180510759354 
2096	 0.352028608322144 
2097	 0.35194194316864 
2098	 0.351865619421005 
2099	 0.351773411035538 
2100	 0.351757943630219 
2101	 0.351626127958298 
2102	 0.351325511932373 
2103	 0.351168930530548 
2104	 0.351066678762436 
2105	 0.350964903831482 
2106	 0.350924670696259 
2107	 0.350872367620468 
2108	 0.350835502147675 
2109	 0.350723832845688 
2110	 0.350573629140854 
2111	 0.350546360015869 
2112	 0.350573241710663 
2113	 0.35059916973114 
2114	 0.35062500834465 
2115	 0.350738614797592 
2116	 0.350778549909592 
2117	 0.350787162780762 
2118	 0.350755006074905 
2119	 0.350655615329742 
2120	 0.350630521774292 
2121	 0.350584000349045 
2122	 0.350575923919678 
2123	 0.350682109594345 
2124	 0.350707948207855 
2125	 0.350691914558411 
2126	 0.350615203380585 
2127	 0.350615382194519 
2128	 0.350832611322403 
2129	 0.351051867008209 
2130	 0.351170599460602 
2131	 0.351329326629639 
2132	 0.351465731859207 
2133	 0.351586043834686 
2134	 0.351727455854416 
2135	 0.351882606744766 
2136	 0.352037370204926 
2137	 0.352106064558029 
2138	 0.352183043956757 
2139	 0.352220863103867 
2140	 0.352162301540375 
2141	 0.352091372013092 
2142	 0.352042645215988 
2143	 0.351922422647476 
2144	 0.351660281419754 
2145	 0.351529330015183 
2146	 0.351349741220474 
2147	 0.351125031709671 
2148	 0.351048678159714 
2149	 0.350902408361435 
2150	 0.35064360499382 
2151	 0.350464105606079 
2152	 0.350242406129837 
2153	 0.349936127662659 
2154	 0.349610358476639 
2155	 0.34933403134346 
2156	 0.348978072404861 
2157	 0.348502397537231 
2158	 0.348087012767792 
2159	 0.347673058509827 
2160	 0.3472700715065 
2161	 0.346857637166977 
2162	 0.34646537899971 
2163	 0.346158355474472 
2164	 0.345729321241379 
2165	 0.345229297876358 
2166	 0.344791531562805 
2167	 0.344254642724991 
2168	 0.343699097633362 
2169	 0.343161314725876 
2170	 0.342655718326569 
2171	 0.342208474874496 
2172	 0.341692537069321 
2173	 0.341199427843094 
2174	 0.34071946144104 
2175	 0.340240389108658 
2176	 0.339812010526657 
2177	 0.33930316567421 
2178	 0.338741540908813 
2179	 0.338184952735901 
2180	 0.337577819824219 
2181	 0.336939424276352 
2182	 0.336289495229721 
2183	 0.335686862468719 
2184	 0.335057526826859 
2185	 0.33441573381424 
2186	 0.333834946155548 
2187	 0.333230286836624 
2188	 0.332381308078766 
2189	 0.331587672233582 
2190	 0.330921858549118 
2191	 0.330135971307755 
2192	 0.329414159059525 
2193	 0.328708112239838 
2194	 0.327903836965561 
2195	 0.327117472887039 
2196	 0.326314181089401 
2197	 0.325518578290939 
2198	 0.324767589569092 
2199	 0.323991775512695 
2200	 0.323281228542328 
2201	 0.322738021612167 
2202	 0.322012454271317 
2203	 0.321181088685989 
2204	 0.320373982191086 
2205	 0.319494634866714 
2206	 0.318694144487381 
2207	 0.317920297384262 
2208	 0.317157775163651 
2209	 0.316574335098267 
2210	 0.315706193447113 
2211	 0.314624428749084 
2212	 0.313704997301102 
2213	 0.312717318534851 
2214	 0.311577975749969 
2215	 0.310559153556824 
2216	 0.309479087591171 
2217	 0.308214157819748 
2218	 0.306913942098618 
2219	 0.305605322122574 
2220	 0.304284632205963 
2221	 0.302891314029694 
2222	 0.301351279020309 
2223	 0.299686312675476 
2224	 0.297879576683044 
2225	 0.296034872531891 
2226	 0.294116884469986 
2227	 0.292018085718155 
2228	 0.289764642715454 
2229	 0.287532836198807 
2230	 0.285233348608017 
2231	 0.282730728387833 
2232	 0.280247241258621 
2233	 0.277518272399902 
2234	 0.274444878101349 
2235	 0.271368622779846 
2236	 0.268213242292404 
2237	 0.264933377504349 
2238	 0.261532068252563 
2239	 0.257999777793884 
2240	 0.25443422794342 
2241	 0.250812262296677 
2242	 0.247245535254478 
2243	 0.243874415755272 
2244	 0.240689784288406 
2245	 0.237727418541908 
2246	 0.234959200024605 
2247	 0.232511967420578 
2248	 0.230389341711998 
2249	 0.228723302483559 
2250	 0.227625891566277 
2251	 0.226833447813988 
2252	 0.226274818181992 
2253	 0.226121932268143 
2254	 0.226117461919785 
2255	 0.226310163736343 
2256	 0.226816833019257 
2257	 0.227683261036873 
2258	 0.228594914078712 
2259	 0.229865625500679 
2260	 0.230955109000206 
2261	 0.232100918889046 
2262	 0.233233377337456 
2263	 0.234313234686852 
2264	 0.2353675365448 
2265	 0.236575216054916 
2266	 0.237532287836075 
2267	 0.238338395953178 
2268	 0.239096522331238 
2269	 0.239645585417747 
2270	 0.240209951996803 
2271	 0.24071192741394 
2272	 0.241314202547073 
2273	 0.241800799965858 
2274	 0.242049962282181 
2275	 0.242114782333374 
2276	 0.242007181048393 
2277	 0.241735354065895 
2278	 0.24142624437809 
2279	 0.241069227457047 
2280	 0.240538835525513 
2281	 0.239882543683052 
2282	 0.239186257123947 
2283	 0.238342851400375 
2284	 0.23729233443737 
2285	 0.236149847507477 
2286	 0.235013127326965 
2287	 0.233795911073685 
2288	 0.23257739841938 
2289	 0.231499582529068 
2290	 0.23019851744175 
2291	 0.22904922068119 
2292	 0.228024944663048 
2293	 0.226968556642532 
2294	 0.225892886519432 
2295	 0.224894270300865 
2296	 0.223833590745926 
2297	 0.222925990819931 
2298	 0.222181975841522 
2299	 0.221457198262215 
2300	 0.220824509859085 
2301	 0.220194175839424 
2302	 0.219538554549217 
2303	 0.219020381569862 
2304	 0.218670859932899 
2305	 0.218200787901878 
2306	 0.217832252383232 
2307	 0.217330753803253 
2308	 0.216629102826118 
2309	 0.216064244508743 
2310	 0.215499520301819 
2311	 0.214922904968262 
2312	 0.214406713843346 
2313	 0.213897585868835 
2314	 0.213446170091629 
2315	 0.212931454181671 
2316	 0.212462186813354 
2317	 0.211780548095703 
2318	 0.21104496717453 
2319	 0.21038131415844 
2320	 0.209852769970894 
2321	 0.209313899278641 
2322	 0.208795562386513 
2323	 0.208221673965454 
2324	 0.207475364208221 
2325	 0.206967830657959 
2326	 0.206637695431709 
2327	 0.206244483590126 
2328	 0.205877006053925 
2329	 0.205465942621231 
2330	 0.205075100064278 
2331	 0.204623982310295 
2332	 0.204269498586655 
2333	 0.204052492976189 
2334	 0.203769758343697 
2335	 0.203700095415115 
2336	 0.2036252617836 
2337	 0.203411340713501 
2338	 0.203279227018356 
2339	 0.203184768557549 
2340	 0.203352406620979 
2341	 0.203766316175461 
2342	 0.20414462685585 
2343	 0.204318284988403 
2344	 0.20450259745121 
2345	 0.205030471086502 
2346	 0.20559598505497 
2347	 0.206264078617096 
2348	 0.206932187080383 
2349	 0.207330495119095 
2350	 0.207927867770195 
2351	 0.208484590053558 
2352	 0.209249436855316 
2353	 0.210317552089691 
2354	 0.211100876331329 
2355	 0.211798429489136 
2356	 0.212655872106552 
2357	 0.213398322463036 
2358	 0.214254081249237 
2359	 0.215349808335304 
2360	 0.216327369213104 
2361	 0.217224985361099 
2362	 0.218222990632057 
2363	 0.219145461916924 
2364	 0.220357000827789 
2365	 0.221900016069412 
2366	 0.223121955990791 
2367	 0.224421694874763 
2368	 0.225693106651306 
2369	 0.226548358798027 
2370	 0.227770447731018 
2371	 0.229515373706818 
2372	 0.230626180768013 
2373	 0.231539785861969 
2374	 0.232460856437683 
2375	 0.232926204800606 
2376	 0.23377813398838 
2377	 0.23502804338932 
2378	 0.235769748687744 
2379	 0.236293703317642 
2380	 0.236868545413017 
2381	 0.237212240695953 
2382	 0.237635299563408 
2383	 0.238258302211761 
2384	 0.238622471690178 
2385	 0.238654866814613 
2386	 0.238867715001106 
2387	 0.239245399832726 
2388	 0.239295735955238 
2389	 0.239126697182655 
2390	 0.23918280005455 
2391	 0.239012002944946 
2392	 0.239091828465462 
2393	 0.239651203155518 
2394	 0.239810779690742 
2395	 0.239608958363533 
2396	 0.239831522107124 
2397	 0.2402603328228 
2398	 0.240473881363869 
2399	 0.24083249270916 
2400	 0.241135060787201 
2401	 0.24105703830719 
2402	 0.241377949714661 
2403	 0.242217227816582 
2404	 0.242573067545891 
2405	 0.242637917399406 
2406	 0.243052110075951 
2407	 0.243495836853981 
2408	 0.243749797344208 
2409	 0.244226306676865 
2410	 0.24457685649395 
2411	 0.244412168860435 
2412	 0.244819566607475 
2413	 0.245778352022171 
2414	 0.24623242020607 
2415	 0.24661460518837 
2416	 0.246925801038742 
2417	 0.247046560049057 
2418	 0.247215151786804 
2419	 0.24737823009491 
2420	 0.247538238763809 
2421	 0.24756583571434 
2422	 0.247604444622993 
2423	 0.247654691338539 
2424	 0.247888013720512 
2425	 0.248348206281662 
2426	 0.248313367366791 
2427	 0.24820376932621 
2428	 0.247965067625046 
2429	 0.247198954224586 
2430	 0.246811032295227 
2431	 0.246629595756531 
2432	 0.246373310685158 
2433	 0.24595619738102 
2434	 0.245930969715118 
2435	 0.24625164270401 
2436	 0.246292233467102 
2437	 0.246596604585648 
2438	 0.246424570679665 
2439	 0.245647624135017 
2440	 0.245596259832382 
2441	 0.245807707309723 
2442	 0.245615795254707 
2443	 0.245601072907448 
2444	 0.245361313223839 
2445	 0.244675859808922 
2446	 0.244278103113174 
2447	 0.24408683180809 
2448	 0.24379500746727 
2449	 0.243385389447212 
2450	 0.24304786324501 
2451	 0.242825567722321 
2452	 0.24248868227005 
2453	 0.241952896118164 
2454	 0.241866171360016 
2455	 0.242043599486351 
2456	 0.24116550385952 
2457	 0.240099608898163 
2458	 0.239295542240143 
2459	 0.238614454865456 
2460	 0.238695219159126 
2461	 0.238899812102318 
2462	 0.238551080226898 
2463	 0.237708002328873 
2464	 0.237075358629227 
2465	 0.236644104123116 
2466	 0.236393064260483 
2467	 0.235984712839127 
2468	 0.235573336482048 
2469	 0.235261842608452 
2470	 0.234715506434441 
2471	 0.234468787908554 
2472	 0.234908550977707 
2473	 0.234717518091202 
2474	 0.234381586313248 
2475	 0.233818903565407 
2476	 0.232252851128578 
2477	 0.231563746929169 
2478	 0.231171131134033 
2479	 0.231047913432121 
2480	 0.231992229819298 
2481	 0.232079684734344 
2482	 0.23159995675087 
2483	 0.23160046339035 
2484	 0.231358543038368 
2485	 0.23140861093998 
2486	 0.232318341732025 
2487	 0.23243847489357 
2488	 0.232163116335869 
2489	 0.23181140422821 
2490	 0.230874344706535 
2491	 0.230477273464203 
2492	 0.230233505368233 
2493	 0.230021744966507 
2494	 0.230228736996651 
2495	 0.229969576001167 
2496	 0.229188784956932 
2497	 0.229148373007774 
2498	 0.229588150978088 
2499	 0.229364186525345 
2500	 0.229351937770844 
