
Text conversion of header file \A_MEDIDAS\PROJETOS\BRASIL\BLOCO GAVIAO\JACOBINA\CANIF27\sco\CANIF27_023.26_00000.asd.ref
 -------------------------------------------------------------
                                                                                                                                                            
The instrument number was  16586/1
New ASD spectrum file: Program version = 6.00 file version = 1.00
Spectrum saved: 10/16/2018 at 10:05:57
VNIR integration time : 34
VNIR channel 1 wavelength = 350 wavelength step = 1
There were 50 samples per data value
xmin = 350 xmax= 2500
ymin= 0 ymax= 1.25
The instrument digitizes spectral values to 16 bits
SWIR1 gain was 214 offset was 2097
SWIR2 gain was 513 offset was 2267
Join between VNIR and SWIR1 was 1000 nm
Join between SWIR1 and SWIR2 was 1830 nm
Absolute Reflectance is Enabled
The Absolute Reflectance File is abs165861.ref
VNIR dark signal subtracted
50 dark measurements taken Tue Oct 16 09:52:54 2018
DCC value was 0
Data is compared to a white reference:
60 white reference measurements taken Tue Oct 16 09:53:02 2018
There was no foreoptic attached
Spectrum file is reflectance data
GPS-Latitude is S0
GPS-Longitude is E0
GPS-Altitude is 0
GPS-UTC is Wed Dec 31 17:00:00 1969

Smart Detector
Serial#  0
Signal (A)  0.000E00
Dark (A)  0.000E00
Ref (A)  0.000E00
Status  0 - Uninitialized
Gain  E-4
Averaging  0
Temp (C)  0.0
Humid (%)  0.0

Reflectance Absolute
Wavelength	CANIF27_23.26_00000.asd.ref
350	 0.167507395148277 
351	 0.161200776696205 
352	 0.159961879253387 
353	 0.160716280341148 
354	 0.159947335720062 
355	 0.15855610370636 
356	 0.166991710662842 
357	 0.172086879611015 
358	 0.162205561995506 
359	 0.163897573947906 
360	 0.169720858335495 
361	 0.173275157809258 
362	 0.170980244874954 
363	 0.166419848799706 
364	 0.165460258722305 
365	 0.168635413050652 
366	 0.169392138719559 
367	 0.165504068136215 
368	 0.164505392313004 
369	 0.170606136322021 
370	 0.172505453228951 
371	 0.172796979546547 
372	 0.171169757843018 
373	 0.167287364602089 
374	 0.16945144534111 
375	 0.172024175524712 
376	 0.172663345932961 
377	 0.173602297902107 
378	 0.17484487593174 
379	 0.175790309906006 
380	 0.175995320081711 
381	 0.175429806113243 
382	 0.176655158400536 
383	 0.178002566099167 
384	 0.177390933036804 
385	 0.179832980036736 
386	 0.180396527051926 
387	 0.179296866059303 
388	 0.181338891386986 
389	 0.182197958230972 
390	 0.182095021009445 
391	 0.182065546512604 
392	 0.183290109038353 
393	 0.184149459004402 
394	 0.184670746326447 
395	 0.185221940279007 
396	 0.184866905212402 
397	 0.185860976576805 
398	 0.187315359711647 
399	 0.186312437057495 
400	 0.187067061662674 
401	 0.188509374856949 
402	 0.189413711428642 
403	 0.189669996500015 
404	 0.189225718379021 
405	 0.189354225993156 
406	 0.19088189303875 
407	 0.191475063562393 
408	 0.191841050982475 
409	 0.192392081022263 
410	 0.193152785301208 
411	 0.192913681268692 
412	 0.192543923854828 
413	 0.192933991551399 
414	 0.194688305258751 
415	 0.194528445601463 
416	 0.193739131093025 
417	 0.194235309958458 
418	 0.19535605609417 
419	 0.195527166128159 
420	 0.195503041148186 
421	 0.197122901678085 
422	 0.197665765881538 
423	 0.197946086525917 
424	 0.198379784822464 
425	 0.198131889104843 
426	 0.198243945837021 
427	 0.198576524853706 
428	 0.198839843273163 
429	 0.199438720941544 
430	 0.199881285429001 
431	 0.200222820043564 
432	 0.20078307390213 
433	 0.200807869434357 
434	 0.200989589095116 
435	 0.201648905873299 
436	 0.202335461974144 
437	 0.20281445980072 
438	 0.203065052628517 
439	 0.203264355659485 
440	 0.20402680337429 
441	 0.204511404037476 
442	 0.204618260264397 
443	 0.204755768179893 
444	 0.20499250292778 
445	 0.205387771129608 
446	 0.205919995903969 
447	 0.206489697098732 
448	 0.206611320376396 
449	 0.206700533628464 
450	 0.207174748182297 
451	 0.207314014434814 
452	 0.207411915063858 
453	 0.207606598734856 
454	 0.207877978682518 
455	 0.208039432764053 
456	 0.208104014396667 
457	 0.208197191357613 
458	 0.208620339632034 
459	 0.208897307515144 
460	 0.209000796079636 
461	 0.209073513746262 
462	 0.209297895431519 
463	 0.209264680743217 
464	 0.209117546677589 
465	 0.209456354379654 
466	 0.209662973880768 
467	 0.20979280769825 
468	 0.209926769137383 
469	 0.209909096360207 
470	 0.209977135062218 
471	 0.21014067530632 
472	 0.210305243730545 
473	 0.210374712944031 
474	 0.210402145981789 
475	 0.210472211241722 
476	 0.210681796073914 
477	 0.21087583899498 
478	 0.211016044020653 
479	 0.211082652211189 
480	 0.210977450013161 
481	 0.211197331547737 
482	 0.211622893810272 
483	 0.211853832006454 
484	 0.211988553404808 
485	 0.21219938993454 
486	 0.212462425231934 
487	 0.212484449148178 
488	 0.212661609053612 
489	 0.212921470403671 
490	 0.21312290430069 
491	 0.213328078389168 
492	 0.213586315512657 
493	 0.213809981942177 
494	 0.213865339756012 
495	 0.214079841971397 
496	 0.21431477367878 
497	 0.214497715234756 
498	 0.214773207902908 
499	 0.214974626898766 
500	 0.215100347995758 
501	 0.215239852666855 
502	 0.215644016861916 
503	 0.215911939740181 
504	 0.216012239456177 
505	 0.2162214666605 
506	 0.216472119092941 
507	 0.216717258095741 
508	 0.216936811804771 
509	 0.217171058058739 
510	 0.217354282736778 
511	 0.217528194189072 
512	 0.217747792601585 
513	 0.217882633209229 
514	 0.218186661601067 
515	 0.218561008572578 
516	 0.218554466962814 
517	 0.218613132834435 
518	 0.218777373433113 
519	 0.219004437327385 
520	 0.219273611903191 
521	 0.219544440507889 
522	 0.219743624329567 
523	 0.219824254512787 
524	 0.220021322369576 
525	 0.220183238387108 
526	 0.220258608460426 
527	 0.220367699861526 
528	 0.220597967505455 
529	 0.220805212855339 
530	 0.220884665846825 
531	 0.221074059605598 
532	 0.221280694007874 
533	 0.221405699849129 
534	 0.221388384699821 
535	 0.221566289663315 
536	 0.221753507852554 
537	 0.221859008073807 
538	 0.222074076533318 
539	 0.222267553210258 
540	 0.222432479262352 
541	 0.22261244058609 
542	 0.222904726862907 
543	 0.223143920302391 
544	 0.223338529467583 
545	 0.223634853959084 
546	 0.223806977272034 
547	 0.223956406116486 
548	 0.224163562059402 
549	 0.22433640062809 
550	 0.224538192152977 
551	 0.224742755293846 
552	 0.224906250834465 
553	 0.225092232227325 
554	 0.225285366177559 
555	 0.225456923246384 
556	 0.225573882460594 
557	 0.225772857666016 
558	 0.226077407598495 
559	 0.226447775959969 
560	 0.226762279868126 
561	 0.227036833763123 
562	 0.227261945605278 
563	 0.227440223097801 
564	 0.227751523256302 
565	 0.228065773844719 
566	 0.22831292450428 
567	 0.22855119407177 
568	 0.228732690215111 
569	 0.22885924577713 
570	 0.228935420513153 
571	 0.228902831673622 
572	 0.228958994150162 
573	 0.229138046503067 
574	 0.229362279176712 
575	 0.229766950011253 
576	 0.230167761445045 
577	 0.230469077825546 
578	 0.230823516845703 
579	 0.231174349784851 
580	 0.231440320611 
581	 0.231555446982384 
582	 0.231544405221939 
583	 0.231602564454079 
584	 0.231718361377716 
585	 0.231704980134964 
586	 0.231704115867615 
587	 0.231777027249336 
588	 0.231987923383713 
589	 0.232486397027969 
590	 0.232854843139648 
591	 0.233051553368568 
592	 0.233177065849304 
593	 0.233113467693329 
594	 0.233083173632622 
595	 0.233175918459892 
596	 0.233309671282768 
597	 0.233279183506966 
598	 0.233111932873726 
599	 0.232901647686958 
600	 0.232753202319145 
601	 0.232590869069099 
602	 0.232404306530952 
603	 0.23222079873085 
604	 0.232078611850739 
605	 0.2320736348629 
606	 0.232197806239128 
607	 0.232311382889748 
608	 0.232352286577225 
609	 0.232351884245872 
610	 0.232360780239105 
611	 0.232399582862854 
612	 0.232368350028992 
613	 0.232281625270844 
614	 0.232215195894241 
615	 0.232079863548279 
616	 0.232072189450264 
617	 0.232192397117615 
618	 0.232096865773201 
619	 0.231966957449913 
620	 0.231899797916412 
621	 0.231926992535591 
622	 0.231913089752197 
623	 0.231933414936066 
624	 0.231939032673836 
625	 0.231818303465843 
626	 0.231783643364906 
627	 0.231811821460724 
628	 0.231855794787407 
629	 0.231894746422768 
630	 0.231800377368927 
631	 0.231712326407433 
632	 0.231793597340584 
633	 0.23193196952343 
634	 0.231947049498558 
635	 0.231865853071213 
636	 0.231874272227287 
637	 0.231950044631958 
638	 0.232019111514091 
639	 0.232032656669617 
640	 0.232005015015602 
641	 0.231992200016975 
642	 0.232048109173775 
643	 0.232167750597 
644	 0.232110768556595 
645	 0.232059508562088 
646	 0.232060357928276 
647	 0.232041776180267 
648	 0.23209285736084 
649	 0.232156813144684 
650	 0.232195347547531 
651	 0.23224963247776 
652	 0.232308685779572 
653	 0.232364624738693 
654	 0.232413440942764 
655	 0.232470497488976 
656	 0.232495427131653 
657	 0.232499808073044 
658	 0.232539027929306 
659	 0.232642576098442 
660	 0.232778429985046 
661	 0.232901632785797 
662	 0.232962608337402 
663	 0.233022019267082 
664	 0.233095571398735 
665	 0.233186095952988 
666	 0.233321025967598 
667	 0.233375355601311 
668	 0.233389750123024 
669	 0.233516186475754 
670	 0.233635276556015 
671	 0.233689740300179 
672	 0.233709260821342 
673	 0.233856528997421 
674	 0.233938038349152 
675	 0.23399318754673 
676	 0.234084606170654 
677	 0.234082743525505 
678	 0.234053835272789 
679	 0.234039843082428 
680	 0.234058186411858 
681	 0.234095677733421 
682	 0.234077215194702 
683	 0.233999222517014 
684	 0.233968138694763 
685	 0.234026670455933 
686	 0.234102964401245 
687	 0.234130725264549 
688	 0.234166532754898 
689	 0.234276056289673 
690	 0.234394788742065 
691	 0.234414726495743 
692	 0.234475120902061 
693	 0.234554350376129 
694	 0.234635651111603 
695	 0.234726160764694 
696	 0.234836399555206 
697	 0.23497049510479 
698	 0.235112383961678 
699	 0.235199078917503 
700	 0.23527629673481 
701	 0.235372677445412 
702	 0.235499799251556 
703	 0.235620856285095 
704	 0.23572413623333 
705	 0.235809803009033 
706	 0.23589101433754 
707	 0.236039146780968 
708	 0.236155658960342 
709	 0.236192211508751 
710	 0.236238092184067 
711	 0.236369445919991 
712	 0.236554756760597 
713	 0.236714288592339 
714	 0.23675075173378 
715	 0.236729249358177 
716	 0.23673777282238 
717	 0.236853152513504 
718	 0.236988127231598 
719	 0.237059608101845 
720	 0.237070232629776 
721	 0.237124785780907 
722	 0.237235993146896 
723	 0.237402498722076 
724	 0.237569957971573 
725	 0.237563252449036 
726	 0.23754845559597 
727	 0.237594783306122 
728	 0.237701758742332 
729	 0.237737044692039 
730	 0.237787291407585 
731	 0.237842723727226 
732	 0.237823933362961 
733	 0.237842738628387 
734	 0.237890243530273 
735	 0.237952962517738 
736	 0.238036677241325 
737	 0.23816491663456 
738	 0.238239675760269 
739	 0.23818875849247 
740	 0.238078817725182 
741	 0.238075628876686 
742	 0.238153755664825 
743	 0.238208040595055 
744	 0.238248333334923 
745	 0.238279148936272 
746	 0.238272041082382 
747	 0.238186612725258 
748	 0.238165885210037 
749	 0.238169744610786 
750	 0.238179430365562 
751	 0.238252311944962 
752	 0.238238409161568 
753	 0.238239720463753 
754	 0.238320469856262 
755	 0.238249152898788 
756	 0.23819799721241 
757	 0.238219141960144 
758	 0.238278329372406 
759	 0.238189995288849 
760	 0.238156095147133 
761	 0.238176435232162 
762	 0.238102823495865 
763	 0.238067477941513 
764	 0.238061532378197 
765	 0.238040819764137 
766	 0.237944528460503 
767	 0.237895637750626 
768	 0.237874284386635 
769	 0.237837642431259 
770	 0.237760379910469 
771	 0.237752333283424 
772	 0.237753927707672 
773	 0.237677007913589 
774	 0.237557575106621 
775	 0.237457990646362 
776	 0.237394869327545 
777	 0.23734937608242 
778	 0.237273335456848 
779	 0.237248763442039 
780	 0.237235307693481 
781	 0.237089052796364 
782	 0.236926585435867 
783	 0.236841142177582 
784	 0.236839473247528 
785	 0.236811205744743 
786	 0.236682131886482 
787	 0.236593961715698 
788	 0.23661333322525 
789	 0.236496239900589 
790	 0.23640388250351 
791	 0.236274227499962 
792	 0.236057564616203 
793	 0.236029386520386 
794	 0.236015230417252 
795	 0.235928326845169 
796	 0.235754832625389 
797	 0.235542431473732 
798	 0.235472321510315 
799	 0.235504508018494 
800	 0.235425800085068 
801	 0.235253155231476 
802	 0.235069632530212 
803	 0.234947681427002 
804	 0.234919100999832 
805	 0.234795033931732 
806	 0.234677478671074 
807	 0.234637454152107 
808	 0.234592065215111 
809	 0.234399735927582 
810	 0.234208405017853 
811	 0.234136402606964 
812	 0.234010010957718 
813	 0.233856350183487 
814	 0.23373855650425 
815	 0.233699232339859 
816	 0.233661115169525 
817	 0.233486652374268 
818	 0.233277916908264 
819	 0.23319873213768 
820	 0.233043119311333 
821	 0.232922405004501 
822	 0.232849478721619 
823	 0.232758209109306 
824	 0.232628509402275 
825	 0.232508093118668 
826	 0.232405632734299 
827	 0.232286259531975 
828	 0.232137605547905 
829	 0.231980785727501 
830	 0.231835886836052 
831	 0.231713503599167 
832	 0.231618136167526 
833	 0.231572702527046 
834	 0.231529787182808 
835	 0.231337040662766 
836	 0.231228590011597 
837	 0.231101289391518 
838	 0.230901822447777 
839	 0.230842813849449 
840	 0.230795308947563 
841	 0.23067007958889 
842	 0.230464935302734 
843	 0.230378851294518 
844	 0.230225339531898 
845	 0.230044797062874 
846	 0.229925066232681 
847	 0.229850977659225 
848	 0.229728326201439 
849	 0.229607582092285 
850	 0.229549020528793 
851	 0.229393437504768 
852	 0.229249343276024 
853	 0.229130148887634 
854	 0.229017287492752 
855	 0.22900153696537 
856	 0.228928625583649 
857	 0.228827208280563 
858	 0.228788077831268 
859	 0.228586256504059 
860	 0.228394582867622 
861	 0.228287726640701 
862	 0.228242933750153 
863	 0.228210970759392 
864	 0.228128477931023 
865	 0.227996006608009 
866	 0.227869257330894 
867	 0.227816641330719 
868	 0.227760702371597 
869	 0.227665886282921 
870	 0.227552056312561 
871	 0.22745905816555 
872	 0.227443471550941 
873	 0.227429836988449 
874	 0.227273270487785 
875	 0.227250963449478 
876	 0.227162197232246 
877	 0.22700160741806 
878	 0.226970702409744 
879	 0.226955786347389 
880	 0.226887881755829 
881	 0.226793125271797 
882	 0.226771786808968 
883	 0.226781487464905 
884	 0.226709485054016 
885	 0.226565301418304 
886	 0.22648099064827 
887	 0.226474121212959 
888	 0.226495951414108 
889	 0.226470828056335 
890	 0.226336076855659 
891	 0.226233616471291 
892	 0.226165771484375 
893	 0.226134076714516 
894	 0.226144760847092 
895	 0.226110562682152 
896	 0.226109117269516 
897	 0.226111873984337 
898	 0.226001337170601 
899	 0.225868031382561 
900	 0.225873783230782 
901	 0.225947454571724 
902	 0.225865125656128 
903	 0.225837975740433 
904	 0.225773796439171 
905	 0.225711941719055 
906	 0.225764736533165 
907	 0.22571337223053 
908	 0.225571289658546 
909	 0.22548109292984 
910	 0.225573346018791 
911	 0.225502222776413 
912	 0.225479975342751 
913	 0.225508138537407 
914	 0.225478827953339 
915	 0.225531831383705 
916	 0.225592091679573 
917	 0.225600525736809 
918	 0.225538268685341 
919	 0.225473120808601 
920	 0.225410804152489 
921	 0.225372776389122 
922	 0.225376099348068 
923	 0.225412651896477 
924	 0.225405737757683 
925	 0.22537761926651 
926	 0.22537787258625 
927	 0.225418418645859 
928	 0.225419029593468 
929	 0.225396603345871 
930	 0.225390270352364 
931	 0.225413128733635 
932	 0.225460529327393 
933	 0.225460439920425 
934	 0.225410103797913 
935	 0.22543440759182 
936	 0.225505396723747 
937	 0.22553925216198 
938	 0.225528925657272 
939	 0.225568532943726 
940	 0.225644007325172 
941	 0.225658997893333 
942	 0.225583374500275 
943	 0.225476697087288 
944	 0.225454494357109 
945	 0.225445345044136 
946	 0.225480869412422 
947	 0.225599735975266 
948	 0.225474566221237 
949	 0.225434944033623 
950	 0.225478976964951 
951	 0.22545699775219 
952	 0.225356981158257 
953	 0.225401848554611 
954	 0.225443452596664 
955	 0.225348323583603 
956	 0.225319191813469 
957	 0.225339964032173 
958	 0.225348100066185 
959	 0.225334018468857 
960	 0.225377887487411 
961	 0.225383460521698 
962	 0.225384622812271 
963	 0.225379124283791 
964	 0.225327849388123 
965	 0.225319102406502 
966	 0.225462466478348 
967	 0.225598827004433 
968	 0.22553089261055 
969	 0.225645691156387 
970	 0.225689217448235 
971	 0.225557237863541 
972	 0.225343242287636 
973	 0.225413963198662 
974	 0.22548633813858 
975	 0.225502371788025 
976	 0.22547373175621 
977	 0.225431442260742 
978	 0.225481748580933 
979	 0.22549444437027 
980	 0.225470662117004 
981	 0.22554087638855 
982	 0.225648015737534 
983	 0.225628197193146 
984	 0.225520268082619 
985	 0.225444033741951 
986	 0.225357010960579 
987	 0.225335747003555 
988	 0.225423097610474 
989	 0.225542113184929 
990	 0.225468382239342 
991	 0.225492790341377 
992	 0.225417405366898 
993	 0.225251197814941 
994	 0.225247338414192 
995	 0.225289076566696 
996	 0.225299850106239 
997	 0.225233554840088 
998	 0.225115418434143 
999	 0.225112691521645 
1000	 0.22508479654789 
1001	 0.217763870954514 
1002	 0.217763468623161 
1003	 0.217734634876251 
1004	 0.217722997069359 
1005	 0.217732787132263 
1006	 0.217710226774216 
1007	 0.217660829424858 
1008	 0.217584282159805 
1009	 0.217510834336281 
1010	 0.217405676841736 
1011	 0.217348113656044 
1012	 0.217296719551086 
1013	 0.217255562543869 
1014	 0.21726281940937 
1015	 0.21721063554287 
1016	 0.217096239328384 
1017	 0.217084378004074 
1018	 0.217059955000877 
1019	 0.216962367296219 
1020	 0.2169429063797 
1021	 0.216921612620354 
1022	 0.216806665062904 
1023	 0.216751381754875 
1024	 0.216670855879784 
1025	 0.216550841927528 
1026	 0.216458573937416 
1027	 0.216374576091766 
1028	 0.216299533843994 
1029	 0.216256529092789 
1030	 0.21617303788662 
1031	 0.216055646538734 
1032	 0.215976074337959 
1033	 0.215828910470009 
1034	 0.215707540512085 
1035	 0.215624734759331 
1036	 0.215497344732285 
1037	 0.215550571680069 
1038	 0.215607658028603 
1039	 0.21555583178997 
1040	 0.215489134192467 
1041	 0.215438231825829 
1042	 0.215280175209045 
1043	 0.215175613760948 
1044	 0.215127229690552 
1045	 0.215096667408943 
1046	 0.214984342455864 
1047	 0.214793756604195 
1048	 0.214689821004868 
1049	 0.214623779058456 
1050	 0.214530304074287 
1051	 0.21449476480484 
1052	 0.214509069919586 
1053	 0.214431867003441 
1054	 0.21434660255909 
1055	 0.214271500706673 
1056	 0.214184552431107 
1057	 0.214053630828857 
1058	 0.213937491178513 
1059	 0.213808432221413 
1060	 0.213642701506615 
1061	 0.21349461376667 
1062	 0.213358163833618 
1063	 0.213305786252022 
1064	 0.213318794965744 
1065	 0.213285759091377 
1066	 0.213224783539772 
1067	 0.213129490613937 
1068	 0.212975785136223 
1069	 0.212846159934998 
1070	 0.212691068649292 
1071	 0.212583974003792 
1072	 0.212492093443871 
1073	 0.212445929646492 
1074	 0.212378472089767 
1075	 0.212245926260948 
1076	 0.212125957012177 
1077	 0.21199806034565 
1078	 0.211873158812523 
1079	 0.211778864264488 
1080	 0.211685210466385 
1081	 0.211615070700645 
1082	 0.211585626006126 
1083	 0.211566135287285 
1084	 0.211536824703217 
1085	 0.211489319801331 
1086	 0.211383938789368 
1087	 0.211213991045952 
1088	 0.211021736264229 
1089	 0.210855424404144 
1090	 0.210676193237305 
1091	 0.210534676909447 
1092	 0.210530519485474 
1093	 0.210529685020447 
1094	 0.210493102669716 
1095	 0.210476100444794 
1096	 0.21033450961113 
1097	 0.210166737437248 
1098	 0.210069015622139 
1099	 0.209983542561531 
1100	 0.209982052445412 
1101	 0.209949254989624 
1102	 0.209954351186752 
1103	 0.209877088665962 
1104	 0.209806695580482 
1105	 0.209727823734283 
1106	 0.209617331624031 
1107	 0.209561139345169 
1108	 0.209490865468979 
1109	 0.2093785405159 
1110	 0.209315314888954 
1111	 0.209260910749435 
1112	 0.209231540560722 
1113	 0.209252133965492 
1114	 0.209274724125862 
1115	 0.209310755133629 
1116	 0.209329232573509 
1117	 0.209293007850647 
1118	 0.209204837679863 
1119	 0.209114149212837 
1120	 0.209023371338844 
1121	 0.208928242325783 
1122	 0.208899796009064 
1123	 0.208872333168983 
1124	 0.20881199836731 
1125	 0.208754658699036 
1126	 0.208689659833908 
1127	 0.208623975515366 
1128	 0.208569347858429 
1129	 0.208501622080803 
1130	 0.208375185728073 
1131	 0.208226874470711 
1132	 0.208094969391823 
1133	 0.208004876971245 
1134	 0.207956299185753 
1135	 0.207972303032875 
1136	 0.207995772361755 
1137	 0.20797310769558 
1138	 0.207888245582581 
1139	 0.207760632038116 
1140	 0.207611739635468 
1141	 0.207516774535179 
1142	 0.20750105381012 
1143	 0.207465678453445 
1144	 0.207462891936302 
1145	 0.207464009523392 
1146	 0.207388401031494 
1147	 0.207326233386993 
1148	 0.207228824496269 
1149	 0.207149982452393 
1150	 0.207076326012611 
1151	 0.207007199525833 
1152	 0.2069411277771 
1153	 0.20688459277153 
1154	 0.206811413168907 
1155	 0.206711068749428 
1156	 0.206632196903229 
1157	 0.206549435853958 
1158	 0.206475034356117 
1159	 0.206411495804787 
1160	 0.206354886293411 
1161	 0.206319287419319 
1162	 0.206329539418221 
1163	 0.206318154931068 
1164	 0.206274211406708 
1165	 0.206247851252556 
1166	 0.206189230084419 
1167	 0.206072330474854 
1168	 0.206011474132538 
1169	 0.205967023968697 
1170	 0.205910190939903 
1171	 0.205873921513557 
1172	 0.205821096897125 
1173	 0.205770820379257 
1174	 0.205720037221909 
1175	 0.20568685233593 
1176	 0.205655053257942 
1177	 0.205604210495949 
1178	 0.205574184656143 
1179	 0.205522686243057 
1180	 0.205459177494049 
1181	 0.205408096313477 
1182	 0.205338135361671 
1183	 0.205281943082809 
1184	 0.205237984657288 
1185	 0.205197691917419 
1186	 0.205166682600975 
1187	 0.205128654837608 
1188	 0.205093935132027 
1189	 0.205048486590385 
1190	 0.204999789595604 
1191	 0.20492134988308 
1192	 0.20486906170845 
1193	 0.204830780625343 
1194	 0.204771235585213 
1195	 0.204754486680031 
1196	 0.204718843102455 
1197	 0.204623818397522 
1198	 0.204542949795723 
1199	 0.204495459794998 
1200	 0.204459667205811 
1201	 0.204426363110542 
1202	 0.204380020499229 
1203	 0.204344496130943 
1204	 0.204285487532616 
1205	 0.204186722636223 
1206	 0.204120397567749 
1207	 0.204076677560806 
1208	 0.204000443220139 
1209	 0.20393243432045 
1210	 0.203870877623558 
1211	 0.203832238912582 
1212	 0.203814744949341 
1213	 0.203759118914604 
1214	 0.203738167881966 
1215	 0.203669682145119 
1216	 0.203544199466705 
1217	 0.203488424420357 
1218	 0.203404784202576 
1219	 0.203326225280762 
1220	 0.203267887234688 
1221	 0.203205898404121 
1222	 0.203121826052666 
1223	 0.203059256076813 
1224	 0.203025177121162 
1225	 0.202958628535271 
1226	 0.202861234545708 
1227	 0.202817425131798 
1228	 0.202766016125679 
1229	 0.202705472707748 
1230	 0.202717468142509 
1231	 0.20268227159977 
1232	 0.202595844864845 
1233	 0.202523663640022 
1234	 0.202438801527023 
1235	 0.202384650707245 
1236	 0.202354043722153 
1237	 0.202308475971222 
1238	 0.202254205942154 
1239	 0.202164188027382 
1240	 0.202116459608078 
1241	 0.202104389667511 
1242	 0.202050551772118 
1243	 0.202002346515656 
1244	 0.201934993267059 
1245	 0.201816499233246 
1246	 0.201735079288483 
1247	 0.201666712760925 
1248	 0.201602384448051 
1249	 0.201554208993912 
1250	 0.20150750875473 
1251	 0.201450243592262 
1252	 0.201362803578377 
1253	 0.201265960931778 
1254	 0.201190665364265 
1255	 0.20113867521286 
1256	 0.201113149523735 
1257	 0.201115071773529 
1258	 0.201085314154625 
1259	 0.201038062572479 
1260	 0.200972527265549 
1261	 0.200925290584564 
1262	 0.200856611132622 
1263	 0.200806140899658 
1264	 0.20078980922699 
1265	 0.20073789358139 
1266	 0.200667321681976 
1267	 0.200600951910019 
1268	 0.20052245259285 
1269	 0.200448125600815 
1270	 0.200379744172096 
1271	 0.200300052762032 
1272	 0.200208321213722 
1273	 0.200113907456398 
1274	 0.200043201446533 
1275	 0.200003698468208 
1276	 0.199972048401833 
1277	 0.199943140149117 
1278	 0.199877634644508 
1279	 0.199807867407799 
1280	 0.199744269251823 
1281	 0.199683979153633 
1282	 0.199603766202927 
1283	 0.199503123760223 
1284	 0.199428245425224 
1285	 0.199359282851219 
1286	 0.199291795492172 
1287	 0.199250161647797 
1288	 0.199188262224197 
1289	 0.199108555912971 
1290	 0.199017524719238 
1291	 0.198898077011108 
1292	 0.198825046420097 
1293	 0.198761239647865 
1294	 0.198702037334442 
1295	 0.198649987578392 
1296	 0.198544964194298 
1297	 0.198428273200989 
1298	 0.198336243629456 
1299	 0.198229268193245 
1300	 0.198146358132362 
1301	 0.198061585426331 
1302	 0.197922736406326 
1303	 0.197828069329262 
1304	 0.197772771120071 
1305	 0.197693809866905 
1306	 0.19759476184845 
1307	 0.197533071041107 
1308	 0.197483286261559 
1309	 0.197419762611389 
1310	 0.197393298149109 
1311	 0.197346091270447 
1312	 0.197267845273018 
1313	 0.197206795215607 
1314	 0.197139322757721 
1315	 0.197084277868271 
1316	 0.197047933936119 
1317	 0.197003334760666 
1318	 0.196917042136192 
1319	 0.196910202503204 
1320	 0.196892201900482 
1321	 0.196820273995399 
1322	 0.196793124079704 
1323	 0.196725487709045 
1324	 0.19661645591259 
1325	 0.196567758917809 
1326	 0.196536108851433 
1327	 0.196539416909218 
1328	 0.196517184376717 
1329	 0.196525096893311 
1330	 0.196486935019493 
1331	 0.196388140320778 
1332	 0.196361571550369 
1333	 0.196361675858498 
1334	 0.196335777640343 
1335	 0.196348682045937 
1336	 0.196332991123199 
1337	 0.196247935295105 
1338	 0.196232795715332 
1339	 0.196289032697678 
1340	 0.196277990937233 
1341	 0.19625324010849 
1342	 0.196234285831451 
1343	 0.196185678243637 
1344	 0.196117803454399 
1345	 0.196125611662865 
1346	 0.19617959856987 
1347	 0.19616411626339 
1348	 0.196137189865112 
1349	 0.196091026067734 
1350	 0.1960119754076 
1351	 0.19599312543869 
1352	 0.19602969288826 
1353	 0.196012541651726 
1354	 0.196001067757607 
1355	 0.195974364876747 
1356	 0.1959138661623 
1357	 0.195870816707611 
1358	 0.195832759141922 
1359	 0.195794627070427 
1360	 0.195745170116425 
1361	 0.195718213915825 
1362	 0.19573974609375 
1363	 0.195691421627998 
1364	 0.195611193776131 
1365	 0.195540234446526 
1366	 0.195441320538521 
1367	 0.195341810584068 
1368	 0.195259183645248 
1369	 0.195150554180145 
1370	 0.1950344145298 
1371	 0.194908186793327 
1372	 0.194793209433556 
1373	 0.194718047976494 
1374	 0.194640025496483 
1375	 0.194533884525299 
1376	 0.194447666406631 
1377	 0.1943668872118 
1378	 0.194270804524422 
1379	 0.194197371602058 
1380	 0.194107890129089 
1381	 0.194026306271553 
1382	 0.193891227245331 
1383	 0.193755388259888 
1384	 0.193554520606995 
1385	 0.193309396505356 
1386	 0.193031445145607 
1387	 0.192729279398918 
1388	 0.192359045147896 
1389	 0.191945463418961 
1390	 0.19147914648056 
1391	 0.190954938530922 
1392	 0.190383911132813 
1393	 0.18974681198597 
1394	 0.189093917608261 
1395	 0.18839967250824 
1396	 0.187671348452568 
1397	 0.186888232827187 
1398	 0.18612077832222 
1399	 0.185305088758469 
1400	 0.184523582458496 
1401	 0.183788672089577 
1402	 0.183096125721931 
1403	 0.182439789175987 
1404	 0.181826174259186 
1405	 0.181264728307724 
1406	 0.180739060044289 
1407	 0.180254966020584 
1408	 0.179827660322189 
1409	 0.179467484354973 
1410	 0.179167032241821 
1411	 0.178981259465218 
1412	 0.178866654634476 
1413	 0.178913071751595 
1414	 0.179058089852333 
1415	 0.179350912570953 
1416	 0.179826214909554 
1417	 0.180331349372864 
1418	 0.180983006954193 
1419	 0.18160679936409 
1420	 0.182303249835968 
1421	 0.182957917451859 
1422	 0.183650940656662 
1423	 0.184267446398735 
1424	 0.184884876012802 
1425	 0.185411006212234 
1426	 0.185857489705086 
1427	 0.186262369155884 
1428	 0.186605498194695 
1429	 0.186908215284348 
1430	 0.187143862247467 
1431	 0.187380090355873 
1432	 0.187586262822151 
1433	 0.187759235501289 
1434	 0.187899604439735 
1435	 0.188046887516975 
1436	 0.188139408826828 
1437	 0.188228130340576 
1438	 0.188326120376587 
1439	 0.188356712460518 
1440	 0.188371643424034 
1441	 0.188383609056473 
1442	 0.188345894217491 
1443	 0.188333407044411 
1444	 0.188355833292007 
1445	 0.188346460461617 
1446	 0.188332065939903 
1447	 0.188325271010399 
1448	 0.188304871320724 
1449	 0.188260927796364 
1450	 0.18823117017746 
1451	 0.188207760453224 
1452	 0.188182070851326 
1453	 0.188146308064461 
1454	 0.188115105032921 
1455	 0.1880983710289 
1456	 0.188072681427002 
1457	 0.188049048185349 
1458	 0.188002794981003 
1459	 0.187930792570114 
1460	 0.187884345650673 
1461	 0.187824711203575 
1462	 0.18779094517231 
1463	 0.187809318304062 
1464	 0.187776863574982 
1465	 0.187720358371735 
1466	 0.187676578760147 
1467	 0.187619611620903 
1468	 0.187560096383095 
1469	 0.187498539686203 
1470	 0.187450736761093 
1471	 0.187400713562965 
1472	 0.187348380684853 
1473	 0.187321037054062 
1474	 0.187281489372253 
1475	 0.187232807278633 
1476	 0.1871607452631 
1477	 0.187125474214554 
1478	 0.187078803777695 
1479	 0.187020018696785 
1480	 0.186991050839424 
1481	 0.186955600976944 
1482	 0.186914309859276 
1483	 0.1869016289711 
1484	 0.186875447630882 
1485	 0.186824187636375 
1486	 0.186798721551895 
1487	 0.186761111021042 
1488	 0.186719655990601 
1489	 0.186719477176666 
1490	 0.186688840389252 
1491	 0.186639681458473 
1492	 0.186603531241417 
1493	 0.186558455228806 
1494	 0.1864904910326 
1495	 0.186459213495255 
1496	 0.186461940407753 
1497	 0.186414375901222 
1498	 0.186363205313683 
1499	 0.186301082372665 
1500	 0.186177209019661 
1501	 0.186129331588745 
1502	 0.186144813895226 
1503	 0.186095222830772 
1504	 0.186040371656418 
1505	 0.185987815260887 
1506	 0.185888305306435 
1507	 0.185826972126961 
1508	 0.185819536447525 
1509	 0.185767114162445 
1510	 0.185686945915222 
1511	 0.185619339346886 
1512	 0.185542732477188 
1513	 0.185462042689323 
1514	 0.185371682047844 
1515	 0.185323551297188 
1516	 0.185287117958069 
1517	 0.185253202915192 
1518	 0.185266226530075 
1519	 0.185234248638153 
1520	 0.185168474912643 
1521	 0.185127928853035 
1522	 0.185084775090218 
1523	 0.185047134757042 
1524	 0.185032531619072 
1525	 0.184992760419846 
1526	 0.184936076402664 
1527	 0.184889644384384 
1528	 0.184835255146027 
1529	 0.184776857495308 
1530	 0.184715837240219 
1531	 0.18466691672802 
1532	 0.184610232710838 
1533	 0.184582576155663 
1534	 0.184544607996941 
1535	 0.184481829404831 
1536	 0.184432163834572 
1537	 0.184363380074501 
1538	 0.184290885925293 
1539	 0.184252426028252 
1540	 0.184182271361351 
1541	 0.184118032455444 
1542	 0.18410137295723 
1543	 0.184048607945442 
1544	 0.183995068073273 
1545	 0.183948174118996 
1546	 0.183850765228271 
1547	 0.183782771229744 
1548	 0.183749750256538 
1549	 0.183703050017357 
1550	 0.183670863509178 
1551	 0.183638632297516 
1552	 0.183594331145287 
1553	 0.183533683419228 
1554	 0.183473169803619 
1555	 0.183435663580894 
1556	 0.183391824364662 
1557	 0.183341547846794 
1558	 0.183291479945183 
1559	 0.183243438601494 
1560	 0.183209598064423 
1561	 0.183179616928101 
1562	 0.183154061436653 
1563	 0.183127492666245 
1564	 0.183071345090866 
1565	 0.183009132742882 
1566	 0.182963609695435 
1567	 0.182922348380089 
1568	 0.18288366496563 
1569	 0.182860434055328 
1570	 0.182815045118332 
1571	 0.182754933834076 
1572	 0.182706207036972 
1573	 0.182655543088913 
1574	 0.182598382234573 
1575	 0.182554632425308 
1576	 0.18250398337841 
1577	 0.18243145942688 
1578	 0.182373106479645 
1579	 0.182316988706589 
1580	 0.182259798049927 
1581	 0.182211130857468 
1582	 0.1821678429842 
1583	 0.182125881314278 
1584	 0.18208022415638 
1585	 0.182026982307434 
1586	 0.181988641619682 
1587	 0.181970834732056 
1588	 0.181943222880363 
1589	 0.181913897395134 
1590	 0.181887209415436 
1591	 0.181848302483559 
1592	 0.181818410754204 
1593	 0.181822746992111 
1594	 0.181774973869324 
1595	 0.181687071919441 
1596	 0.181636646389961 
1597	 0.18157659471035 
1598	 0.181525647640228 
1599	 0.181502893567085 
1600	 0.181474596261978 
1601	 0.181438267230988 
1602	 0.181390196084976 
1603	 0.181341394782066 
1604	 0.181300446391106 
1605	 0.181252002716064 
1606	 0.181209310889244 
1607	 0.181187808513641 
1608	 0.181158140301704 
1609	 0.18110816180706 
1610	 0.181060940027237 
1611	 0.181027218699455 
1612	 0.180983230471611 
1613	 0.18092654645443 
1614	 0.18088486790657 
1615	 0.180847510695457 
1616	 0.180811524391174 
1617	 0.18078601360321 
1618	 0.180737003684044 
1619	 0.180682092905045 
1620	 0.180621698498726 
1621	 0.18052913248539 
1622	 0.180483341217041 
1623	 0.180470958352089 
1624	 0.180438101291656 
1625	 0.180420085787773 
1626	 0.180376827716827 
1627	 0.180305302143097 
1628	 0.180245131254196 
1629	 0.180179923772812 
1630	 0.180136665701866 
1631	 0.180110052227974 
1632	 0.180062860250473 
1633	 0.180022418498993 
1634	 0.179953306913376 
1635	 0.179858759045601 
1636	 0.179778441786766 
1637	 0.179672479629517 
1638	 0.179626539349556 
1639	 0.179616615176201 
1640	 0.179591909050941 
1641	 0.179609552025795 
1642	 0.179579108953476 
1643	 0.179500713944435 
1644	 0.179455786943436 
1645	 0.179410591721535 
1646	 0.179385885596275 
1647	 0.179401189088821 
1648	 0.17937245965004 
1649	 0.1793362647295 
1650	 0.179272159934044 
1651	 0.179152086377144 
1652	 0.179093182086945 
1653	 0.179054945707321 
1654	 0.179007455706596 
1655	 0.17899078130722 
1656	 0.178954347968102 
1657	 0.178894102573395 
1658	 0.17885234951973 
1659	 0.178824409842491 
1660	 0.178775355219841 
1661	 0.17870856821537 
1662	 0.178649485111237 
1663	 0.17859622836113 
1664	 0.178540363907814 
1665	 0.17848713696003 
1666	 0.178479254245758 
1667	 0.178398504853249 
1668	 0.178348198533058 
1669	 0.178343027830124 
1670	 0.178283035755157 
1671	 0.17828506231308 
1672	 0.178310438990593 
1673	 0.178241685032845 
1674	 0.178226366639137 
1675	 0.178210884332657 
1676	 0.178139165043831 
1677	 0.178117349743843 
1678	 0.178072050213814 
1679	 0.177986487746239 
1680	 0.177960276603699 
1681	 0.177973940968513 
1682	 0.177967563271523 
1683	 0.177975550293922 
1684	 0.177954837679863 
1685	 0.177886366844177 
1686	 0.177835732698441 
1687	 0.177792385220528 
1688	 0.177777335047722 
1689	 0.177774429321289 
1690	 0.177758172154427 
1691	 0.17773762345314 
1692	 0.177691057324409 
1693	 0.177650198340416 
1694	 0.177619412541389 
1695	 0.177565559744835 
1696	 0.177535593509674 
1697	 0.177520915865898 
1698	 0.177487909793854 
1699	 0.177467942237854 
1700	 0.17743781208992 
1701	 0.17738002538681 
1702	 0.177324250340462 
1703	 0.177308827638626 
1704	 0.177299305796623 
1705	 0.177298605442047 
1706	 0.177304819226265 
1707	 0.177253469824791 
1708	 0.17720490694046 
1709	 0.177139520645142 
1710	 0.177076429128647 
1711	 0.177050828933716 
1712	 0.176987484097481 
1713	 0.176976025104523 
1714	 0.17695215344429 
1715	 0.176888883113861 
1716	 0.176889032125473 
1717	 0.176834940910339 
1718	 0.176807403564453 
1719	 0.17682084441185 
1720	 0.176750704646111 
1721	 0.176699355244637 
1722	 0.176640748977661 
1723	 0.176544368267059 
1724	 0.176512867212296 
1725	 0.176483735442162 
1726	 0.17640495300293 
1727	 0.176359832286835 
1728	 0.176311910152435 
1729	 0.176284968852997 
1730	 0.176295235753059 
1731	 0.176256701350212 
1732	 0.17622409760952 
1733	 0.176177263259888 
1734	 0.176084160804749 
1735	 0.176020354032516 
1736	 0.175953820347786 
1737	 0.175872668623924 
1738	 0.175849720835686 
1739	 0.175825282931328 
1740	 0.175804778933525 
1741	 0.175786629319191 
1742	 0.175759062170982 
1743	 0.175734177231789 
1744	 0.175683110952377 
1745	 0.175635635852814 
1746	 0.175586178898811 
1747	 0.175555214285851 
1748	 0.175526306033134 
1749	 0.175468474626541 
1750	 0.17543138563633 
1751	 0.175331011414528 
1752	 0.175250694155693 
1753	 0.175265848636627 
1754	 0.175254240632057 
1755	 0.175227165222168 
1756	 0.175193339586258 
1757	 0.175146237015724 
1758	 0.175074726343155 
1759	 0.175037041306496 
1760	 0.175069242715836 
1761	 0.175066858530045 
1762	 0.175059214234352 
1763	 0.175059378147125 
1764	 0.174994915723801 
1765	 0.174938425421715 
1766	 0.174886763095856 
1767	 0.174837693572044 
1768	 0.174839690327644 
1769	 0.174779295921326 
1770	 0.174698129296303 
1771	 0.174670144915581 
1772	 0.174642592668533 
1773	 0.174651384353638 
1774	 0.174683600664139 
1775	 0.174664214253426 
1776	 0.174609526991844 
1777	 0.17451012134552 
1778	 0.174449771642685 
1779	 0.174388378858566 
1780	 0.174363419413567 
1781	 0.174400076270103 
1782	 0.174430534243584 
1783	 0.17444272339344 
1784	 0.174422934651375 
1785	 0.174399137496948 
1786	 0.174407675862312 
1787	 0.174376919865608 
1788	 0.174330428242683 
1789	 0.174307361245155 
1790	 0.17427022755146 
1791	 0.174275770783424 
1792	 0.174313098192215 
1793	 0.174302086234093 
1794	 0.17426323890686 
1795	 0.174206495285034 
1796	 0.174155116081238 
1797	 0.174155160784721 
1798	 0.174148261547089 
1799	 0.174127832055092 
1800	 0.174120381474495 
1801	 0.174090549349785 
1802	 0.174041822552681 
1803	 0.174005195498466 
1804	 0.174020111560822 
1805	 0.174018055200577 
1806	 0.173998489975929 
1807	 0.174016714096069 
1808	 0.173975452780724 
1809	 0.173917770385742 
1810	 0.173922464251518 
1811	 0.173913061618805 
1812	 0.173909991979599 
1813	 0.173919752240181 
1814	 0.173875153064728 
1815	 0.173853829503059 
1816	 0.173844560980797 
1817	 0.173856288194656 
1818	 0.173838809132576 
1819	 0.173856988549232 
1820	 0.173875600099564 
1821	 0.173813059926033 
1822	 0.173802584409714 
1823	 0.173792377114296 
1824	 0.173751339316368 
1825	 0.173801511526108 
1826	 0.173884853720665 
1827	 0.173899441957474 
1828	 0.173865377902985 
1829	 0.173809871077538 
1830	 0.173759117722511 
1831	 0.180246934294701 
1832	 0.180219814181328 
1833	 0.180203318595886 
1834	 0.180273786187172 
1835	 0.180233389139175 
1836	 0.180074885487556 
1837	 0.180019229650497 
1838	 0.179974883794785 
1839	 0.179921060800552 
1840	 0.179902642965317 
1841	 0.179981842637062 
1842	 0.179950565099716 
1843	 0.179839104413986 
1844	 0.179791674017906 
1845	 0.17978224158287 
1846	 0.179729923605919 
1847	 0.179677322506905 
1848	 0.179620355367661 
1849	 0.179501608014107 
1850	 0.179368227720261 
1851	 0.17927074432373 
1852	 0.179221674799919 
1853	 0.179233193397522 
1854	 0.179225996136665 
1855	 0.179179802536964 
1856	 0.179109066724777 
1857	 0.179056867957115 
1858	 0.178994417190552 
1859	 0.178886488080025 
1860	 0.178849399089813 
1861	 0.178739041090012 
1862	 0.178603619337082 
1863	 0.178576946258545 
1864	 0.178506940603256 
1865	 0.178428515791893 
1866	 0.178372636437416 
1867	 0.178344562649727 
1868	 0.178236588835716 
1869	 0.178212940692902 
1870	 0.178279563784599 
1871	 0.178264379501343 
1872	 0.17825922369957 
1873	 0.178219109773636 
1874	 0.178046673536301 
1875	 0.177896559238434 
1876	 0.17778605222702 
1877	 0.177652597427368 
1878	 0.177497670054436 
1879	 0.177397564053535 
1880	 0.177238747477531 
1881	 0.176981776952744 
1882	 0.176757082343102 
1883	 0.176461949944496 
1884	 0.176206544041634 
1885	 0.176065236330032 
1886	 0.175841972231865 
1887	 0.175605416297913 
1888	 0.175380975008011 
1889	 0.175158232450485 
1890	 0.17485100030899 
1891	 0.174614027142525 
1892	 0.174447551369667 
1893	 0.174154087901115 
1894	 0.17383648455143 
1895	 0.173548221588135 
1896	 0.17319543659687 
1897	 0.172889828681946 
1898	 0.172647207975388 
1899	 0.1723612844944 
1900	 0.172047197818756 
1901	 0.171743884682655 
1902	 0.17147496342659 
1903	 0.171142160892487 
1904	 0.170869663357735 
1905	 0.170682787895203 
1906	 0.170430615544319 
1907	 0.170163258910179 
1908	 0.169965848326683 
1909	 0.169766575098038 
1910	 0.169572308659554 
1911	 0.16937081515789 
1912	 0.169278755784035 
1913	 0.169244095683098 
1914	 0.169149860739708 
1915	 0.169110357761383 
1916	 0.169117659330368 
1917	 0.168976992368698 
1918	 0.168926879763603 
1919	 0.168975412845612 
1920	 0.168900832533836 
1921	 0.168866485357285 
1922	 0.168831259012222 
1923	 0.16878367960453 
1924	 0.168631091713905 
1925	 0.16855950653553 
1926	 0.168590500950813 
1927	 0.16854102909565 
1928	 0.168432846665382 
1929	 0.168397635221481 
1930	 0.168365001678467 
1931	 0.168294161558151 
1932	 0.168236508965492 
1933	 0.168198734521866 
1934	 0.16816945374012 
1935	 0.168097048997879 
1936	 0.168092340230942 
1937	 0.168122231960297 
1938	 0.168110817670822 
1939	 0.168090954422951 
1940	 0.168057426810265 
1941	 0.16806460916996 
1942	 0.168043121695518 
1943	 0.167975455522537 
1944	 0.167941883206367 
1945	 0.167880982160568 
1946	 0.167858421802521 
1947	 0.1678716391325 
1948	 0.167896494269371 
1949	 0.167909666895866 
1950	 0.167909502983093 
1951	 0.167894884943962 
1952	 0.16789522767067 
1953	 0.167925402522087 
1954	 0.167991250753403 
1955	 0.168039560317993 
1956	 0.16807048022747 
1957	 0.168115645647049 
1958	 0.168174028396606 
1959	 0.168182015419006 
1960	 0.16815459728241 
1961	 0.16818505525589 
1962	 0.168190777301788 
1963	 0.168108493089676 
1964	 0.168070927262306 
1965	 0.168085008859634 
1966	 0.168056443333626 
1967	 0.168067693710327 
1968	 0.16809144616127 
1969	 0.168159350752831 
1970	 0.168167009949684 
1971	 0.168159320950508 
1972	 0.168156504631042 
1973	 0.168123513460159 
1974	 0.168098881840706 
1975	 0.168120831251144 
1976	 0.168171182274818 
1977	 0.16824097931385 
1978	 0.168354794383049 
1979	 0.168414726853371 
1980	 0.168402478098869 
1981	 0.168443441390991 
1982	 0.168503999710083 
1983	 0.168510213494301 
1984	 0.168481826782227 
1985	 0.168525770306587 
1986	 0.168597146868706 
1987	 0.168585598468781 
1988	 0.168601289391518 
1989	 0.168680742383003 
1990	 0.168684259057045 
1991	 0.168657660484314 
1992	 0.168745324015617 
1993	 0.168878063559532 
1994	 0.168936625123024 
1995	 0.168962851166725 
1996	 0.169001519680023 
1997	 0.168983176350594 
1998	 0.168996095657349 
1999	 0.16900622844696 
2000	 0.169107899069786 
2001	 0.16914539039135 
2002	 0.169219687581062 
2003	 0.169329538941383 
2004	 0.169397592544556 
2005	 0.169512882828712 
2006	 0.169594466686249 
2007	 0.169656842947006 
2008	 0.169698998332024 
2009	 0.169757395982742 
2010	 0.169791623950005 
2011	 0.169845104217529 
2012	 0.169936850667 
2013	 0.169957458972931 
2014	 0.17001374065876 
2015	 0.170075848698616 
2016	 0.170117065310478 
2017	 0.170233264565468 
2018	 0.170278087258339 
2019	 0.170294553041458 
2020	 0.170355528593063 
2021	 0.170427784323692 
2022	 0.170472294092178 
2023	 0.170526176691055 
2024	 0.170608386397362 
2025	 0.170678719878197 
2026	 0.170738950371742 
2027	 0.170836180448532 
2028	 0.170909956097603 
2029	 0.170920595526695 
2030	 0.171005427837372 
2031	 0.171084091067314 
2032	 0.171170681715012 
2033	 0.171306401491165 
2034	 0.171411797404289 
2035	 0.171506464481354 
2036	 0.171651378273964 
2037	 0.171708226203918 
2038	 0.171643361449242 
2039	 0.171663522720337 
2040	 0.171672448515892 
2041	 0.171712353825569 
2042	 0.171770721673965 
2043	 0.171925812959671 
2044	 0.172067701816559 
2045	 0.172132536768913 
2046	 0.172185152769089 
2047	 0.172202587127686 
2048	 0.172193452715874 
2049	 0.172085210680962 
2050	 0.172100946307182 
2051	 0.172199308872223 
2052	 0.172204524278641 
2053	 0.1722102612257 
2054	 0.172213524580002 
2055	 0.172128766775131 
2056	 0.172114148736 
2057	 0.172162085771561 
2058	 0.172188282012939 
2059	 0.172267585992813 
2060	 0.172357603907585 
2061	 0.172383546829224 
2062	 0.172443225979805 
2063	 0.172508835792542 
2064	 0.172442421317101 
2065	 0.172419130802155 
2066	 0.172409236431122 
2067	 0.172413408756256 
2068	 0.172385975718498 
2069	 0.172399431467056 
2070	 0.172454997897148 
2071	 0.172490581870079 
2072	 0.17250069975853 
2073	 0.172573462128639 
2074	 0.172707468271255 
2075	 0.172819554805756 
2076	 0.172840535640717 
2077	 0.172832742333412 
2078	 0.172787085175514 
2079	 0.172735750675201 
2080	 0.172691211104393 
2081	 0.172665446996689 
2082	 0.172676742076874 
2083	 0.172701507806778 
2084	 0.172687813639641 
2085	 0.172725915908813 
2086	 0.172748610377312 
2087	 0.172742336988449 
2088	 0.172682017087936 
2089	 0.17260517179966 
2090	 0.172529622912407 
2091	 0.172433108091354 
2092	 0.172262102365494 
2093	 0.172228500247002 
2094	 0.172271311283112 
2095	 0.172193571925163 
2096	 0.172145709395409 
2097	 0.172082498669624 
2098	 0.171966657042503 
2099	 0.171875774860382 
2100	 0.17182394862175 
2101	 0.171747177839279 
2102	 0.171669498085976 
2103	 0.171573475003242 
2104	 0.171395525336266 
2105	 0.171314895153046 
2106	 0.171272620558739 
2107	 0.171250119805336 
2108	 0.17122220993042 
2109	 0.171267613768578 
2110	 0.171335369348526 
2111	 0.171353653073311 
2112	 0.171380192041397 
2113	 0.171476855874062 
2114	 0.171513974666595 
2115	 0.171497642993927 
2116	 0.171456053853035 
2117	 0.171371981501579 
2118	 0.171341419219971 
2119	 0.171261385083199 
2120	 0.171289801597595 
2121	 0.171502590179443 
2122	 0.171549558639526 
2123	 0.171504721045494 
2124	 0.171505272388458 
2125	 0.171473875641823 
2126	 0.171412378549576 
2127	 0.171393737196922 
2128	 0.171424105763435 
2129	 0.171414658427238 
2130	 0.17140705883503 
2131	 0.171372711658478 
2132	 0.171374499797821 
2133	 0.171378090977669 
2134	 0.171327516436577 
2135	 0.17134103178978 
2136	 0.171474859118462 
2137	 0.17147009074688 
2138	 0.171442031860352 
2139	 0.171381816267967 
2140	 0.171192079782486 
2141	 0.17106856405735 
2142	 0.171001479029655 
2143	 0.170871868729591 
2144	 0.170695960521698 
2145	 0.170574799180031 
2146	 0.170444175601006 
2147	 0.170198783278465 
2148	 0.17007751762867 
2149	 0.16996756196022 
2150	 0.169758677482605 
2151	 0.169572785496712 
2152	 0.169364422559738 
2153	 0.169096067547798 
2154	 0.168861865997314 
2155	 0.168666943907738 
2156	 0.168416097760201 
2157	 0.168101981282234 
2158	 0.16785092651844 
2159	 0.167666420340538 
2160	 0.167379602789879 
2161	 0.167050004005432 
2162	 0.166743233799934 
2163	 0.16643451154232 
2164	 0.166003152728081 
2165	 0.165575295686722 
2166	 0.165246710181236 
2167	 0.164769306778908 
2168	 0.164277210831642 
2169	 0.163903668522835 
2170	 0.163396835327148 
2171	 0.162785202264786 
2172	 0.162233024835587 
2173	 0.161602228879929 
2174	 0.160827770829201 
2175	 0.160187810659409 
2176	 0.159626290202141 
2177	 0.158960729837418 
2178	 0.158352345228195 
2179	 0.157602593302727 
2180	 0.15666401386261 
2181	 0.155850425362587 
2182	 0.155061021447182 
2183	 0.154193788766861 
2184	 0.153314530849457 
2185	 0.152442529797554 
2186	 0.151482596993446 
2187	 0.150595262646675 
2188	 0.149682760238647 
2189	 0.148814454674721 
2190	 0.147833302617073 
2191	 0.14683772623539 
2192	 0.146225064992905 
2193	 0.145581036806107 
2194	 0.144852936267853 
2195	 0.144390419125557 
2196	 0.14392252266407 
2197	 0.143331423401833 
2198	 0.143001392483711 
2199	 0.143014967441559 
2200	 0.142776340246201 
2201	 0.142406418919563 
2202	 0.142315521836281 
2203	 0.142287746071815 
2204	 0.142316162586212 
2205	 0.142540723085403 
2206	 0.142774611711502 
2207	 0.143010973930359 
2208	 0.143291875720024 
2209	 0.143753886222839 
2210	 0.14410462975502 
2211	 0.144380807876587 
2212	 0.144679024815559 
2213	 0.14498832821846 
2214	 0.145368352532387 
2215	 0.145841658115387 
2216	 0.14633072912693 
2217	 0.146859616041183 
2218	 0.147402137517929 
2219	 0.147859364748001 
2220	 0.148270547389984 
2221	 0.148626208305359 
2222	 0.148923173546791 
2223	 0.14931121468544 
2224	 0.149760648608208 
2225	 0.150199204683304 
2226	 0.150701761245728 
2227	 0.151110172271729 
2228	 0.151484996080399 
2229	 0.151837199926376 
2230	 0.152180284261703 
2231	 0.152418881654739 
2232	 0.152567774057388 
2233	 0.152753606438637 
2234	 0.152830064296722 
2235	 0.152999028563499 
2236	 0.153347969055176 
2237	 0.153497979044914 
2238	 0.153525501489639 
2239	 0.153588309884071 
2240	 0.153673201799393 
2241	 0.153634309768677 
2242	 0.15360227227211 
2243	 0.153594389557838 
2244	 0.153652802109718 
2245	 0.153874278068542 
2246	 0.154084116220474 
2247	 0.154199346899986 
2248	 0.154214978218079 
2249	 0.154057309031487 
2250	 0.153971031308174 
2251	 0.154113560914993 
2252	 0.154241681098938 
2253	 0.154412358999252 
2254	 0.154565840959549 
2255	 0.154803097248077 
2256	 0.154981225728989 
2257	 0.155103877186775 
2258	 0.155274301767349 
2259	 0.155497670173645 
2260	 0.1556416451931 
2261	 0.155767828226089 
2262	 0.1558718085289 
2263	 0.155878081917763 
2264	 0.155970573425293 
2265	 0.156145080924034 
2266	 0.156217336654663 
2267	 0.156280636787415 
2268	 0.156342431902885 
2269	 0.156309455633163 
2270	 0.156297445297241 
2271	 0.156290531158447 
2272	 0.156321927905083 
2273	 0.156451508402824 
2274	 0.156580045819283 
2275	 0.156645804643631 
2276	 0.156670317053795 
2277	 0.156512603163719 
2278	 0.156465545296669 
2279	 0.156526818871498 
2280	 0.1563850492239 
2281	 0.156350389122963 
2282	 0.156264498829842 
2283	 0.156029656529427 
2284	 0.155922830104828 
2285	 0.155805990099907 
2286	 0.155731409788132 
2287	 0.155558601021767 
2288	 0.155391916632652 
2289	 0.155370727181435 
2290	 0.15513351559639 
2291	 0.154943868517876 
2292	 0.154850900173187 
2293	 0.154747396707535 
2294	 0.154526501893997 
2295	 0.154393211007118 
2296	 0.154418408870697 
2297	 0.154337480664253 
2298	 0.154203578829765 
2299	 0.15399894118309 
2300	 0.153735354542732 
2301	 0.153493300080299 
2302	 0.153170838952065 
2303	 0.152924939990044 
2304	 0.152784422039986 
2305	 0.152536034584045 
2306	 0.152183070778847 
2307	 0.151947796344757 
2308	 0.151774004101753 
2309	 0.151537731289864 
2310	 0.151356965303421 
2311	 0.151064991950989 
2312	 0.150660201907158 
2313	 0.150304824113846 
2314	 0.149875074625015 
2315	 0.149590477347374 
2316	 0.149555221199989 
2317	 0.149100378155708 
2318	 0.148665711283684 
2319	 0.148413106799126 
2320	 0.147946387529373 
2321	 0.147624745965004 
2322	 0.147484511137009 
2323	 0.147132009267807 
2324	 0.146759644150734 
2325	 0.146394163370132 
2326	 0.145826295018196 
2327	 0.145482569932938 
2328	 0.145452812314034 
2329	 0.14512911438942 
2330	 0.144704252481461 
2331	 0.144533202052116 
2332	 0.144001886248589 
2333	 0.143472880125046 
2334	 0.143520519137383 
2335	 0.143198698759079 
2336	 0.142645686864853 
2337	 0.142549142241478 
2338	 0.142472475767136 
2339	 0.142243102192879 
2340	 0.141929298639297 
2341	 0.14159283041954 
2342	 0.141181737184525 
2343	 0.140762865543365 
2344	 0.140787899494171 
2345	 0.140784233808517 
2346	 0.140544712543488 
2347	 0.140552282333374 
2348	 0.140570253133774 
2349	 0.140739753842354 
2350	 0.140808671712875 
2351	 0.14094851911068 
2352	 0.141002371907234 
2353	 0.14093604683876 
2354	 0.140880569815636 
2355	 0.140853896737099 
2356	 0.140798941254616 
2357	 0.140599772334099 
2358	 0.140664875507355 
2359	 0.14087687432766 
2360	 0.141134366393089 
2361	 0.141630589962006 
2362	 0.141844689846039 
2363	 0.141981154680252 
2364	 0.141983836889267 
2365	 0.141803219914436 
2366	 0.141772121191025 
2367	 0.141605049371719 
2368	 0.141678899526596 
2369	 0.141942009329796 
2370	 0.142067119479179 
2371	 0.142361611127853 
2372	 0.14245730638504 
2373	 0.142427355051041 
2374	 0.142391711473465 
2375	 0.142192900180817 
2376	 0.142103925347328 
2377	 0.141945704817772 
2378	 0.14190536737442 
2379	 0.142028793692589 
2380	 0.142112195491791 
2381	 0.142295360565186 
2382	 0.142366111278534 
2383	 0.142318204045296 
2384	 0.142341643571854 
2385	 0.142426058650017 
2386	 0.142368301749229 
2387	 0.142258509993553 
2388	 0.142194479703903 
2389	 0.141941219568253 
2390	 0.141896352171898 
2391	 0.142197012901306 
2392	 0.142125993967056 
2393	 0.141732439398766 
2394	 0.141752362251282 
2395	 0.14184196293354 
2396	 0.141810938715935 
2397	 0.14214463531971 
2398	 0.142186939716339 
2399	 0.141707897186279 
2400	 0.141703426837921 
2401	 0.142112523317337 
2402	 0.141981720924377 
2403	 0.141725957393646 
2404	 0.14155687391758 
2405	 0.141025096178055 
2406	 0.14081221818924 
2407	 0.140950828790665 
2408	 0.14081272482872 
2409	 0.140526428818703 
2410	 0.140290677547455 
2411	 0.14016455411911 
2412	 0.139819696545601 
2413	 0.139174982905388 
2414	 0.138897061347961 
2415	 0.138721704483032 
2416	 0.138439819216728 
2417	 0.138318181037903 
2418	 0.138288602232933 
2419	 0.138180702924728 
2420	 0.137984037399292 
2421	 0.137980028986931 
2422	 0.137819141149521 
2423	 0.137388855218887 
2424	 0.137055650353432 
2425	 0.13685716688633 
2426	 0.136667937040329 
2427	 0.136214345693588 
2428	 0.136095657944679 
2429	 0.136341005563736 
2430	 0.136265501379967 
2431	 0.136191383004189 
2432	 0.136102110147476 
2433	 0.13585489988327 
2434	 0.135764941573143 
2435	 0.135929420590401 
2436	 0.135653004050255 
2437	 0.134983941912651 
2438	 0.134728401899338 
2439	 0.134368360042572 
2440	 0.134306892752647 
2441	 0.134855046868324 
2442	 0.134933933615685 
2443	 0.134946018457413 
2444	 0.134466350078583 
2445	 0.133328944444656 
2446	 0.133167088031769 
2447	 0.133180171251297 
2448	 0.133101999759674 
2449	 0.133705392479897 
2450	 0.133825659751892 
2451	 0.133313357830048 
2452	 0.133298128843307 
2453	 0.133683055639267 
2454	 0.133760124444962 
2455	 0.133804768323898 
2456	 0.133642762899399 
2457	 0.133529305458069 
2458	 0.133407428860664 
2459	 0.133663639426231 
2460	 0.134853228926659 
2461	 0.135497868061066 
2462	 0.135218381881714 
2463	 0.135237500071526 
2464	 0.134853973984718 
2465	 0.134633153676987 
2466	 0.135101139545441 
2467	 0.135258108377457 
2468	 0.135081484913826 
2469	 0.134930104017258 
2470	 0.134690567851067 
2471	 0.134559229016304 
2472	 0.134354203939438 
2473	 0.134258583188057 
2474	 0.134642884135246 
2475	 0.134489133954048 
2476	 0.133553177118301 
2477	 0.133501902222633 
2478	 0.13367161154747 
2479	 0.133860111236572 
2480	 0.134807989001274 
2481	 0.135520100593567 
2482	 0.136413931846619 
2483	 0.13642829656601 
2484	 0.135716363787651 
2485	 0.135674178600311 
2486	 0.135172352194786 
2487	 0.134903684258461 
2488	 0.135800406336784 
2489	 0.13556969165802 
2490	 0.133941069245338 
2491	 0.133615136146545 
2492	 0.133826389908791 
2493	 0.13364315032959 
2494	 0.133899956941605 
2495	 0.133959144353867 
2496	 0.13332299888134 
2497	 0.133510932326317 
2498	 0.134400561451912 
2499	 0.135049283504486 
2500	 0.13583154976368 
