
Text conversion of header file \A_MEDIDAS\PROJETOS\BRASIL\BLOCO GAVIAO\JACOBINA\CANIF27\sco\CANIF27_033.20_00004.asd.ref
 -------------------------------------------------------------
                                                                                                                                                            
The instrument number was  16586/1
New ASD spectrum file: Program version = 6.00 file version = 1.00
Spectrum saved: 10/16/2018 at 10:24:41
VNIR integration time : 34
VNIR channel 1 wavelength = 350 wavelength step = 1
There were 50 samples per data value
xmin = 350 xmax= 2500
ymin= 0 ymax= 1.25
The instrument digitizes spectral values to 16 bits
SWIR1 gain was 203 offset was 2094
SWIR2 gain was 499 offset was 2264
Join between VNIR and SWIR1 was 1000 nm
Join between SWIR1 and SWIR2 was 1830 nm
Absolute Reflectance is Enabled
The Absolute Reflectance File is abs165861.ref
VNIR dark signal subtracted
50 dark measurements taken Tue Oct 16 10:13:56 2018
DCC value was 0
Data is compared to a white reference:
60 white reference measurements taken Tue Oct 16 10:14:04 2018
There was no foreoptic attached
Spectrum file is reflectance data
GPS-Latitude is S0
GPS-Longitude is E0
GPS-Altitude is 0
GPS-UTC is Wed Dec 31 17:00:00 1969

Smart Detector
Serial#  0
Signal (A)  0.000E00
Dark (A)  0.000E00
Ref (A)  0.000E00
Status  0 - Uninitialized
Gain  E-4
Averaging  0
Temp (C)  0.0
Humid (%)  0.0

Reflectance Absolute
Wavelength	CANIF27_33.20_00004.asd.ref
350	 0.189736440777779 
351	 0.180962890386581 
352	 0.188342213630676 
353	 0.197902753949165 
354	 0.197025090456009 
355	 0.188775137066841 
356	 0.190665677189827 
357	 0.19482384622097 
358	 0.190275192260742 
359	 0.193244457244873 
360	 0.196734741330147 
361	 0.197300314903259 
362	 0.195066750049591 
363	 0.193081945180893 
364	 0.194230288267136 
365	 0.197354733943939 
366	 0.196518167853355 
367	 0.191679373383522 
368	 0.191318541765213 
369	 0.198897078633308 
370	 0.1996880620718 
371	 0.195532023906708 
372	 0.192908897995949 
373	 0.19748318195343 
374	 0.196315973997116 
375	 0.196073517203331 
376	 0.198053419589996 
377	 0.196814253926277 
378	 0.196988850831985 
379	 0.198336496949196 
380	 0.199343800544739 
381	 0.197412431240082 
382	 0.197691068053246 
383	 0.199803397059441 
384	 0.201073780655861 
385	 0.198834300041199 
386	 0.197369560599327 
387	 0.197677984833717 
388	 0.197572126984596 
389	 0.198623582720757 
390	 0.198652938008308 
391	 0.197265386581421 
392	 0.19900181889534 
393	 0.198903560638428 
394	 0.197300210595131 
395	 0.196180462837219 
396	 0.196512833237648 
397	 0.196202665567398 
398	 0.195944219827652 
399	 0.198138058185577 
400	 0.197230637073517 
401	 0.196272924542427 
402	 0.197112649679184 
403	 0.197345897555351 
404	 0.19759139418602 
405	 0.197236910462379 
406	 0.196069493889809 
407	 0.196746483445168 
408	 0.19624836742878 
409	 0.194916859269142 
410	 0.195234462618828 
411	 0.195826500654221 
412	 0.195901736617088 
413	 0.195215299725533 
414	 0.194155260920525 
415	 0.194132179021835 
416	 0.1943139731884 
417	 0.193765893578529 
418	 0.193620160222054 
419	 0.193664893507957 
420	 0.193858548998833 
421	 0.194204658269882 
422	 0.193993374705315 
423	 0.193627387285233 
424	 0.193417280912399 
425	 0.193332359194756 
426	 0.193190112709999 
427	 0.193134039640427 
428	 0.193244695663452 
429	 0.19305245578289 
430	 0.193036898970604 
431	 0.193156316876411 
432	 0.193051144480705 
433	 0.192636251449585 
434	 0.192651987075806 
435	 0.193053126335144 
436	 0.192479029297829 
437	 0.192428976297379 
438	 0.192917987704277 
439	 0.193434283137321 
440	 0.193140253424644 
441	 0.192888557910919 
442	 0.192978963255882 
443	 0.193252176046371 
444	 0.193106338381767 
445	 0.193020552396774 
446	 0.193170934915543 
447	 0.192997992038727 
448	 0.193114653229713 
449	 0.193242728710175 
450	 0.193053528666496 
451	 0.193079695105553 
452	 0.193186566233635 
453	 0.193311601877213 
454	 0.19344125688076 
455	 0.193235605955124 
456	 0.193216800689697 
457	 0.193542078137398 
458	 0.193462565541267 
459	 0.193313851952553 
460	 0.193128049373627 
461	 0.19295334815979 
462	 0.193368017673492 
463	 0.193621575832367 
464	 0.193506732583046 
465	 0.193355664610863 
466	 0.193252980709076 
467	 0.193334862589836 
468	 0.193556293845177 
469	 0.193471699953079 
470	 0.193356513977051 
471	 0.193266436457634 
472	 0.19319674372673 
473	 0.193286329507828 
474	 0.19339719414711 
475	 0.193472474813461 
476	 0.193563222885132 
477	 0.193680837750435 
478	 0.193722754716873 
479	 0.193691313266754 
480	 0.193963333964348 
481	 0.194085791707039 
482	 0.194117859005928 
483	 0.194326147437096 
484	 0.194451406598091 
485	 0.194494754076004 
486	 0.194520458579063 
487	 0.194639757275581 
488	 0.19485679268837 
489	 0.195033058524132 
490	 0.195085510611534 
491	 0.19525408744812 
492	 0.195373341441154 
493	 0.195465907454491 
494	 0.195656567811966 
495	 0.195802241563797 
496	 0.195910662412643 
497	 0.195979923009872 
498	 0.195950835943222 
499	 0.196021735668182 
500	 0.196132868528366 
501	 0.196186482906342 
502	 0.196305230259895 
503	 0.196423754096031 
504	 0.196505457162857 
505	 0.196539953351021 
506	 0.196460396051407 
507	 0.19635708630085 
508	 0.196342810988426 
509	 0.196554884314537 
510	 0.196628987789154 
511	 0.1965721398592 
512	 0.196533709764481 
513	 0.196585923433304 
514	 0.1965262144804 
515	 0.196382373571396 
516	 0.196419432759285 
517	 0.196427941322327 
518	 0.196308791637421 
519	 0.196100100874901 
520	 0.196141883730888 
521	 0.196149662137032 
522	 0.196007207036018 
523	 0.195737063884735 
524	 0.19569830596447 
525	 0.195725455880165 
526	 0.195703715085983 
527	 0.195653066039085 
528	 0.195560291409492 
529	 0.195407420396805 
530	 0.195207610726357 
531	 0.195086285471916 
532	 0.194868758320808 
533	 0.194623097777367 
534	 0.194543942809105 
535	 0.194422751665115 
536	 0.194243788719177 
537	 0.194021299481392 
538	 0.193767189979553 
539	 0.193608894944191 
540	 0.193473368883133 
541	 0.193257436156273 
542	 0.19304546713829 
543	 0.192767232656479 
544	 0.192484304308891 
545	 0.192350253462791 
546	 0.192104443907738 
547	 0.191848501563072 
548	 0.191642910242081 
549	 0.19130639731884 
550	 0.191052958369255 
551	 0.190814673900604 
552	 0.19046226143837 
553	 0.190198987722397 
554	 0.189969897270203 
555	 0.18975718319416 
556	 0.189600542187691 
557	 0.189398244023323 
558	 0.189136639237404 
559	 0.188830271363258 
560	 0.18850189447403 
561	 0.188177436590195 
562	 0.187900528311729 
563	 0.187691956758499 
564	 0.187322869896889 
565	 0.187006115913391 
566	 0.186800017952919 
567	 0.186487644910812 
568	 0.186253890395164 
569	 0.186019763350487 
570	 0.185702607035637 
571	 0.185472413897514 
572	 0.185235157608986 
573	 0.184931501746178 
574	 0.184545204043388 
575	 0.184181824326515 
576	 0.183880388736725 
577	 0.183638498187065 
578	 0.183404833078384 
579	 0.183099523186684 
580	 0.182717114686966 
581	 0.182298511266708 
582	 0.181943118572235 
583	 0.181588232517242 
584	 0.181242808699608 
585	 0.180978670716286 
586	 0.180805906653404 
587	 0.180577769875526 
588	 0.180241897702217 
589	 0.180036246776581 
590	 0.179660230875015 
591	 0.179220467805862 
592	 0.178934454917908 
593	 0.178661108016968 
594	 0.178391173481941 
595	 0.178124532103539 
596	 0.17785806953907 
597	 0.177493363618851 
598	 0.177116587758064 
599	 0.176819369196892 
600	 0.176613435149193 
601	 0.176359191536903 
602	 0.176043391227722 
603	 0.175730928778648 
604	 0.17553249001503 
605	 0.175348550081253 
606	 0.175126701593399 
607	 0.174899950623512 
608	 0.174673482775688 
609	 0.174437820911407 
610	 0.174190878868103 
611	 0.173963561654091 
612	 0.173754081130028 
613	 0.173562526702881 
614	 0.173390612006187 
615	 0.173248678445816 
616	 0.17311792075634 
617	 0.172976434230804 
618	 0.172801941633224 
619	 0.172607660293579 
620	 0.172441929578781 
621	 0.172339618206024 
622	 0.172241643071175 
623	 0.172166928648949 
624	 0.172110214829445 
625	 0.172051995992661 
626	 0.172015801072121 
627	 0.171967849135399 
628	 0.171903416514397 
629	 0.171878784894943 
630	 0.171913594007492 
631	 0.171937137842178 
632	 0.171895042061806 
633	 0.171934008598328 
634	 0.171984598040581 
635	 0.172027066349983 
636	 0.172083124518394 
637	 0.172117486596107 
638	 0.172176957130432 
639	 0.172278761863708 
640	 0.172365114092827 
641	 0.172428637742996 
642	 0.172447964549065 
643	 0.172417983412743 
644	 0.172408148646355 
645	 0.172398790717125 
646	 0.172377452254295 
647	 0.172348856925964 
648	 0.172422453761101 
649	 0.172540590167046 
650	 0.172654420137405 
651	 0.17278727889061 
652	 0.172923400998116 
653	 0.173089697957039 
654	 0.173291102051735 
655	 0.173371091485023 
656	 0.17343533039093 
657	 0.173574045300484 
658	 0.173832461237907 
659	 0.173981249332428 
660	 0.174140587449074 
661	 0.174386188387871 
662	 0.174604594707489 
663	 0.174873068928719 
664	 0.175132319331169 
665	 0.175314337015152 
666	 0.175500214099884 
667	 0.175740107893944 
668	 0.176009088754654 
669	 0.176234617829323 
670	 0.176498696208 
671	 0.176725164055824 
672	 0.176889583468437 
673	 0.177088186144829 
674	 0.177347272634506 
675	 0.17759644985199 
676	 0.177748844027519 
677	 0.177783474326134 
678	 0.177799001336098 
679	 0.177832275629044 
680	 0.177871719002724 
681	 0.177918165922165 
682	 0.177862152457237 
683	 0.177720457315445 
684	 0.177704706788063 
685	 0.177746415138245 
686	 0.177878007292747 
687	 0.178112059831619 
688	 0.178345203399658 
689	 0.178533166646957 
690	 0.178688049316406 
691	 0.178851619362831 
692	 0.179009407758713 
693	 0.179155588150024 
694	 0.179322436451912 
695	 0.179582431912422 
696	 0.179890528321266 
697	 0.180196285247803 
698	 0.18047146499157 
699	 0.180734887719154 
700	 0.18108369410038 
701	 0.18145714700222 
702	 0.181751027703285 
703	 0.182025849819183 
704	 0.182318434119225 
705	 0.182598039507866 
706	 0.182789981365204 
707	 0.183074563741684 
708	 0.183382794260979 
709	 0.183644711971283 
710	 0.183866798877716 
711	 0.184069335460663 
712	 0.18428073823452 
713	 0.184513956308365 
714	 0.184719756245613 
715	 0.184921950101852 
716	 0.185150399804115 
717	 0.185417413711548 
718	 0.185577675700188 
719	 0.185724407434464 
720	 0.185918062925339 
721	 0.186140671372414 
722	 0.186266869306564 
723	 0.186394542455673 
724	 0.186598405241966 
725	 0.18676945567131 
726	 0.186902493238449 
727	 0.18702706694603 
728	 0.187181696295738 
729	 0.187376022338867 
730	 0.187430858612061 
731	 0.187412932515144 
732	 0.187562301754951 
733	 0.18772628903389 
734	 0.187832906842232 
735	 0.187874987721443 
736	 0.187923684716225 
737	 0.188016951084137 
738	 0.18809287250042 
739	 0.188124269247055 
740	 0.1882713586092 
741	 0.18836210668087 
742	 0.188375666737556 
743	 0.188377529382706 
744	 0.18848817050457 
745	 0.18857841193676 
746	 0.188629299402237 
747	 0.188717186450958 
748	 0.188719794154167 
749	 0.188772261142731 
750	 0.18889456987381 
751	 0.188881039619446 
752	 0.188893407583237 
753	 0.188957080245018 
754	 0.189037010073662 
755	 0.189023315906525 
756	 0.189069166779518 
757	 0.189124315977097 
758	 0.189088582992554 
759	 0.189068704843521 
760	 0.18908229470253 
761	 0.189129814505577 
762	 0.189194455742836 
763	 0.189211755990982 
764	 0.189240023493767 
765	 0.189277395606041 
766	 0.189228281378746 
767	 0.189184561371803 
768	 0.189134418964386 
769	 0.189071506261826 
770	 0.189052030444145 
771	 0.18904872238636 
772	 0.189073100686073 
773	 0.189124405384064 
774	 0.189120173454285 
775	 0.189048647880554 
776	 0.188978970050812 
777	 0.189002335071564 
778	 0.189055040478706 
779	 0.18905009329319 
780	 0.188996434211731 
781	 0.188985005021095 
782	 0.188948825001717 
783	 0.188883349299431 
784	 0.188815519213676 
785	 0.188801184296608 
786	 0.188757598400116 
787	 0.188705757260323 
788	 0.188656538724899 
789	 0.188528507947922 
790	 0.188444703817368 
791	 0.188435524702072 
792	 0.188466086983681 
793	 0.188405990600586 
794	 0.188284069299698 
795	 0.188239052891731 
796	 0.188373655080795 
797	 0.188260927796364 
798	 0.188182830810547 
799	 0.188202619552612 
800	 0.188169836997986 
801	 0.188092902302742 
802	 0.188023507595062 
803	 0.187996849417686 
804	 0.188011959195137 
805	 0.187936276197433 
806	 0.187912210822105 
807	 0.187989264726639 
808	 0.187962725758553 
809	 0.187932431697845 
810	 0.187878325581551 
811	 0.187795758247375 
812	 0.187799394130707 
813	 0.187774360179901 
814	 0.187763959169388 
815	 0.187806323170662 
816	 0.187703475356102 
817	 0.18764591217041 
818	 0.187618419528008 
819	 0.1875329464674 
820	 0.187521561980247 
821	 0.187497898936272 
822	 0.187461212277412 
823	 0.187460243701935 
824	 0.187380254268646 
825	 0.187338247895241 
826	 0.187337636947632 
827	 0.187269285321236 
828	 0.18723176419735 
829	 0.187203541398048 
830	 0.187154680490494 
831	 0.187070608139038 
832	 0.187007710337639 
833	 0.186991944909096 
834	 0.186980679631233 
835	 0.186843231320381 
836	 0.186829581856728 
837	 0.186851412057877 
838	 0.186795249581337 
839	 0.18666797876358 
840	 0.186609640717506 
841	 0.186611756682396 
842	 0.186606585979462 
843	 0.186492308974266 
844	 0.186480790376663 
845	 0.186492368578911 
846	 0.186419665813446 
847	 0.186418369412422 
848	 0.186378136277199 
849	 0.186286628246307 
850	 0.186187744140625 
851	 0.186163350939751 
852	 0.186151877045631 
853	 0.186138853430748 
854	 0.186128050088882 
855	 0.186084255576134 
856	 0.186030998826027 
857	 0.185949459671974 
858	 0.185821443796158 
859	 0.185762330889702 
860	 0.185771659016609 
861	 0.185761153697968 
862	 0.185636654496193 
863	 0.18559367954731 
864	 0.185572922229767 
865	 0.185510829091072 
866	 0.185376957058907 
867	 0.185261443257332 
868	 0.185174822807312 
869	 0.185119137167931 
870	 0.185093700885773 
871	 0.185097247362137 
872	 0.185119047760963 
873	 0.18509940803051 
874	 0.18496361374855 
875	 0.18482580780983 
876	 0.184806764125824 
877	 0.184870645403862 
878	 0.184847638010979 
879	 0.184735983610153 
880	 0.18461611866951 
881	 0.184555888175964 
882	 0.184572115540504 
883	 0.184496060013771 
884	 0.184411868453026 
885	 0.184371843934059 
886	 0.184356510639191 
887	 0.184328407049179 
888	 0.184274882078171 
889	 0.184204712510109 
890	 0.18414181470871 
891	 0.184085056185722 
892	 0.184049651026726 
893	 0.183997794985771 
894	 0.183867886662483 
895	 0.183831468224525 
896	 0.183800652623177 
897	 0.183773145079613 
898	 0.183823451399803 
899	 0.183772265911102 
900	 0.183647274971008 
901	 0.183506458997726 
902	 0.183412224054337 
903	 0.1834367364645 
904	 0.183407366275787 
905	 0.183287039399147 
906	 0.183182001113892 
907	 0.183245345950127 
908	 0.18323440849781 
909	 0.183151096105576 
910	 0.18315102159977 
911	 0.183085143566132 
912	 0.182985708117485 
913	 0.182859092950821 
914	 0.182710975408554 
915	 0.182645663619041 
916	 0.182606682181358 
917	 0.18256650865078 
918	 0.182520374655724 
919	 0.182468861341476 
920	 0.182416811585426 
921	 0.182347342371941 
922	 0.182246401906013 
923	 0.182132616639137 
924	 0.182099759578705 
925	 0.182109281420708 
926	 0.182104527950287 
927	 0.182136029005051 
928	 0.182069331407547 
929	 0.181992799043655 
930	 0.181972697377205 
931	 0.181882321834564 
932	 0.181740060448647 
933	 0.181633159518242 
934	 0.181608840823174 
935	 0.181611627340317 
936	 0.181468471884727 
937	 0.181359797716141 
938	 0.181382775306702 
939	 0.18142893910408 
940	 0.181356251239777 
941	 0.181272342801094 
942	 0.181199118494987 
943	 0.181068494915962 
944	 0.181025132536888 
945	 0.180961266160011 
946	 0.180830463767052 
947	 0.18066480755806 
948	 0.180556252598763 
949	 0.180444821715355 
950	 0.180309846997261 
951	 0.180156424641609 
952	 0.179988339543343 
953	 0.179853364825249 
954	 0.179722860455513 
955	 0.179564073681831 
956	 0.179399609565735 
957	 0.17920595407486 
958	 0.179089829325676 
959	 0.179022893309593 
960	 0.178772196173668 
961	 0.17861633002758 
962	 0.178527638316154 
963	 0.178474292159081 
964	 0.178464189171791 
965	 0.178451165556908 
966	 0.17844446003437 
967	 0.178416445851326 
968	 0.17835246026516 
969	 0.178390473127365 
970	 0.178511142730713 
971	 0.178595319390297 
972	 0.178568810224533 
973	 0.178570702672005 
974	 0.178557053208351 
975	 0.178578421473503 
976	 0.178612291812897 
977	 0.178517907857895 
978	 0.17845331132412 
979	 0.178486913442612 
980	 0.178492054343224 
981	 0.17828032374382 
982	 0.178254306316376 
983	 0.178184911608696 
984	 0.178103402256966 
985	 0.178092211484909 
986	 0.17781201004982 
987	 0.177700191736221 
988	 0.177733838558197 
989	 0.177748247981071 
990	 0.177640274167061 
991	 0.177571550011635 
992	 0.17748636007309 
993	 0.17738564312458 
994	 0.17734457552433 
995	 0.177290573716164 
996	 0.177199378609657 
997	 0.177048340439796 
998	 0.176855251193047 
999	 0.176745787262917 
1000	 0.176727622747421 
1001	 0.171433210372925 
1002	 0.171360164880753 
1003	 0.171262040734291 
1004	 0.171214938163757 
1005	 0.171117857098579 
1006	 0.170927658677101 
1007	 0.17089831829071 
1008	 0.170869037508965 
1009	 0.170766338706017 
1010	 0.170630231499672 
1011	 0.170547813177109 
1012	 0.170389428734779 
1013	 0.170340955257416 
1014	 0.170461401343346 
1015	 0.170450270175934 
1016	 0.170444637537003 
1017	 0.170340016484261 
1018	 0.170158505439758 
1019	 0.169983342289925 
1020	 0.169805571436882 
1021	 0.169683441519737 
1022	 0.169622257351875 
1023	 0.169538244605064 
1024	 0.169516652822495 
1025	 0.16961558163166 
1026	 0.169561430811882 
1027	 0.169473171234131 
1028	 0.169378355145454 
1029	 0.16919581592083 
1030	 0.169018402695656 
1031	 0.168934926390648 
1032	 0.168860197067261 
1033	 0.168853655457497 
1034	 0.168814793229103 
1035	 0.168642207980156 
1036	 0.168578639626503 
1037	 0.168522834777832 
1038	 0.168365135788918 
1039	 0.168264895677567 
1040	 0.168226286768913 
1041	 0.168176963925362 
1042	 0.168137043714523 
1043	 0.168074712157249 
1044	 0.16806448996067 
1045	 0.167971342802048 
1046	 0.167765110731125 
1047	 0.16754449903965 
1048	 0.167416602373123 
1049	 0.167350426316261 
1050	 0.167279779911041 
1051	 0.167278841137886 
1052	 0.16724294424057 
1053	 0.167167276144028 
1054	 0.167098566889763 
1055	 0.167067855596542 
1056	 0.166976511478424 
1057	 0.166855528950691 
1058	 0.166687056422234 
1059	 0.166548952460289 
1060	 0.166426554322243 
1061	 0.166311740875244 
1062	 0.166197553277016 
1063	 0.166089370846748 
1064	 0.165969550609589 
1065	 0.165835008025169 
1066	 0.165728598833084 
1067	 0.165615633130074 
1068	 0.165547087788582 
1069	 0.165473103523254 
1070	 0.165427058935165 
1071	 0.165349662303925 
1072	 0.165271922945976 
1073	 0.165166318416595 
1074	 0.165062695741653 
1075	 0.164937987923622 
1076	 0.164844185113907 
1077	 0.164759904146194 
1078	 0.164664953947067 
1079	 0.164563149213791 
1080	 0.164490923285484 
1081	 0.164437755942345 
1082	 0.164361000061035 
1083	 0.16434982419014 
1084	 0.164318948984146 
1085	 0.164216712117195 
1086	 0.164135947823524 
1087	 0.164053112268448 
1088	 0.163951262831688 
1089	 0.163834869861603 
1090	 0.163730680942535 
1091	 0.163691163063049 
1092	 0.16365484893322 
1093	 0.163576751947403 
1094	 0.163550913333893 
1095	 0.163428127765656 
1096	 0.163214355707169 
1097	 0.163094133138657 
1098	 0.162978738546371 
1099	 0.162863090634346 
1100	 0.162833079695702 
1101	 0.162774085998535 
1102	 0.162716597318649 
1103	 0.162635996937752 
1104	 0.162575915455818 
1105	 0.162498265504837 
1106	 0.162435472011566 
1107	 0.162311717867851 
1108	 0.16214793920517 
1109	 0.162000983953476 
1110	 0.161874026060104 
1111	 0.161832213401794 
1112	 0.161826983094215 
1113	 0.161870226264 
1114	 0.161868020892143 
1115	 0.16178834438324 
1116	 0.161746814846992 
1117	 0.161662131547928 
1118	 0.161522313952446 
1119	 0.161361679434776 
1120	 0.161265447735786 
1121	 0.161155611276627 
1122	 0.161012887954712 
1123	 0.160884007811546 
1124	 0.160804152488708 
1125	 0.160769358277321 
1126	 0.160749480128288 
1127	 0.160730749368668 
1128	 0.160667806863785 
1129	 0.160530656576157 
1130	 0.160393297672272 
1131	 0.160327270627022 
1132	 0.160290211439133 
1133	 0.160225421190262 
1134	 0.160152956843376 
1135	 0.160099595785141 
1136	 0.159975200891495 
1137	 0.159799665212631 
1138	 0.159711763262749 
1139	 0.159632191061974 
1140	 0.159562990069389 
1141	 0.159556820988655 
1142	 0.159486651420593 
1143	 0.159379109740257 
1144	 0.159323945641518 
1145	 0.159228593111038 
1146	 0.159113615751266 
1147	 0.159047484397888 
1148	 0.158976525068283 
1149	 0.158889845013618 
1150	 0.158819273114204 
1151	 0.158734247088432 
1152	 0.158634781837463 
1153	 0.158505216240883 
1154	 0.158393025398254 
1155	 0.158302947878838 
1156	 0.158238366246223 
1157	 0.158184126019478 
1158	 0.158169955015182 
1159	 0.158152505755425 
1160	 0.158074721693993 
1161	 0.1579869389534 
1162	 0.157862782478333 
1163	 0.157745987176895 
1164	 0.157685577869415 
1165	 0.157627761363983 
1166	 0.157561480998993 
1167	 0.157508030533791 
1168	 0.157441318035126 
1169	 0.157357782125473 
1170	 0.157280489802361 
1171	 0.157228156924248 
1172	 0.157174199819565 
1173	 0.157099559903145 
1174	 0.157030329108238 
1175	 0.156945437192917 
1176	 0.156871020793915 
1177	 0.156846046447754 
1178	 0.156813263893127 
1179	 0.156739309430122 
1180	 0.156666785478592 
1181	 0.156566962599754 
1182	 0.156445309519768 
1183	 0.156372264027596 
1184	 0.156359478831291 
1185	 0.156279996037483 
1186	 0.156200662255287 
1187	 0.156115487217903 
1188	 0.155977174639702 
1189	 0.155878975987434 
1190	 0.155868470668793 
1191	 0.155837297439575 
1192	 0.15580989420414 
1193	 0.15578581392765 
1194	 0.155695259571075 
1195	 0.155600994825363 
1196	 0.155523493885994 
1197	 0.155442357063293 
1198	 0.155393287539482 
1199	 0.155313014984131 
1200	 0.155238285660744 
1201	 0.155190974473953 
1202	 0.15513177216053 
1203	 0.155073031783104 
1204	 0.15501281619072 
1205	 0.154941618442535 
1206	 0.154878422617912 
1207	 0.154816567897797 
1208	 0.154758453369141 
1209	 0.154687628149986 
1210	 0.154624730348587 
1211	 0.154519096016884 
1212	 0.15440072119236 
1213	 0.154316931962967 
1214	 0.15424270927906 
1215	 0.154218643903732 
1216	 0.154191374778748 
1217	 0.154146790504456 
1218	 0.154121473431587 
1219	 0.154052764177322 
1220	 0.153931111097336 
1221	 0.153855249285698 
1222	 0.153776660561562 
1223	 0.153704971075058 
1224	 0.153654262423515 
1225	 0.15359790623188 
1226	 0.153551861643791 
1227	 0.153479337692261 
1228	 0.153376325964928 
1229	 0.153330013155937 
1230	 0.153272598981857 
1231	 0.153177246451378 
1232	 0.153116390109062 
1233	 0.153037533164024 
1234	 0.152923077344894 
1235	 0.152837574481964 
1236	 0.152755066752434 
1237	 0.152683213353157 
1238	 0.152612954378128 
1239	 0.152560919523239 
1240	 0.152480810880661 
1241	 0.152369812130928 
1242	 0.152293920516968 
1243	 0.152240708470345 
1244	 0.15216451883316 
1245	 0.152102053165436 
1246	 0.15203270316124 
1247	 0.151939660310745 
1248	 0.151834055781364 
1249	 0.151791289448738 
1250	 0.151753887534142 
1251	 0.151729598641396 
1252	 0.151708543300629 
1253	 0.151643738150597 
1254	 0.151578113436699 
1255	 0.151512801647186 
1256	 0.151451468467712 
1257	 0.151434332132339 
1258	 0.151421532034874 
1259	 0.151385799050331 
1260	 0.151341944932938 
1261	 0.151306971907616 
1262	 0.151266500353813 
1263	 0.151215806603432 
1264	 0.15117321908474 
1265	 0.151124060153961 
1266	 0.151049941778183 
1267	 0.150986835360527 
1268	 0.150930926203728 
1269	 0.150878041982651 
1270	 0.150821924209595 
1271	 0.150769039988518 
1272	 0.150732979178429 
1273	 0.15069454908371 
1274	 0.150676026940346 
1275	 0.150634706020355 
1276	 0.150554597377777 
1277	 0.150506779551506 
1278	 0.150423303246498 
1279	 0.150299087166786 
1280	 0.150216415524483 
1281	 0.150151014328003 
1282	 0.150078609585762 
1283	 0.150032356381416 
1284	 0.149962872266769 
1285	 0.149865627288818 
1286	 0.149789288640022 
1287	 0.149733334779739 
1288	 0.149638131260872 
1289	 0.14951103925705 
1290	 0.149423614144325 
1291	 0.149317547678947 
1292	 0.149246603250504 
1293	 0.149215370416641 
1294	 0.149182632565498 
1295	 0.14910052716732 
1296	 0.14897608757019 
1297	 0.14889831840992 
1298	 0.148855358362198 
1299	 0.148762166500092 
1300	 0.148648306727409 
1301	 0.148561626672745 
1302	 0.1484664529562 
1303	 0.148387253284454 
1304	 0.148373439908028 
1305	 0.148328945040703 
1306	 0.148240312933922 
1307	 0.148186132311821 
1308	 0.148182153701782 
1309	 0.148131459951401 
1310	 0.148055151104927 
1311	 0.147999182343483 
1312	 0.147934839129448 
1313	 0.147866666316986 
1314	 0.147808209061623 
1315	 0.14774726331234 
1316	 0.147682696580887 
1317	 0.147606581449509 
1318	 0.147508040070534 
1319	 0.147458299994469 
1320	 0.14743535220623 
1321	 0.147396117448807 
1322	 0.147368550300598 
1323	 0.147317916154861 
1324	 0.147211313247681 
1325	 0.147115960717201 
1326	 0.147059813141823 
1327	 0.147049143910408 
1328	 0.146997183561325 
1329	 0.146949827671051 
1330	 0.146900162100792 
1331	 0.146832093596458 
1332	 0.146767988801003 
1333	 0.146701261401176 
1334	 0.146661281585693 
1335	 0.146635010838509 
1336	 0.146578535437584 
1337	 0.146544739603996 
1338	 0.146493956446648 
1339	 0.146369233727455 
1340	 0.146320700645447 
1341	 0.146341845393181 
1342	 0.146310567855835 
1343	 0.146267279982567 
1344	 0.146258115768433 
1345	 0.146202147006989 
1346	 0.146121993660927 
1347	 0.146046683192253 
1348	 0.145984873175621 
1349	 0.145972535014153 
1350	 0.145945593714714 
1351	 0.145884230732918 
1352	 0.145831421017647 
1353	 0.145763665437698 
1354	 0.145638167858124 
1355	 0.14555861055851 
1356	 0.145536631345749 
1357	 0.145436242222786 
1358	 0.145276695489883 
1359	 0.145170971751213 
1360	 0.145067363977432 
1361	 0.144953012466431 
1362	 0.144877627491951 
1363	 0.144767552614212 
1364	 0.144596442580223 
1365	 0.144468486309052 
1366	 0.14437560737133 
1367	 0.144253730773926 
1368	 0.144129604101181 
1369	 0.144012808799744 
1370	 0.14385487139225 
1371	 0.143677622079849 
1372	 0.143493428826332 
1373	 0.143321439623833 
1374	 0.143199875950813 
1375	 0.143085792660713 
1376	 0.1429413408041 
1377	 0.142799228429794 
1378	 0.142657250165939 
1379	 0.142490699887276 
1380	 0.142321541905403 
1381	 0.142197206616402 
1382	 0.141973614692688 
1383	 0.141718074679375 
1384	 0.141390904784203 
1385	 0.141048446297646 
1386	 0.140570759773254 
1387	 0.140047892928123 
1388	 0.139355629682541 
1389	 0.138562023639679 
1390	 0.137602552771568 
1391	 0.1365065574646 
1392	 0.135257735848427 
1393	 0.133795142173767 
1394	 0.132311716675758 
1395	 0.130658090114594 
1396	 0.129031553864479 
1397	 0.127286240458488 
1398	 0.125666096806526 
1399	 0.124036140739918 
1400	 0.122509330511093 
1401	 0.121148101985455 
1402	 0.119906701147556 
1403	 0.118798151612282 
1404	 0.117825224995613 
1405	 0.116949468851089 
1406	 0.116201654076576 
1407	 0.115560926496983 
1408	 0.115011192858219 
1409	 0.114589191973209 
1410	 0.114310331642628 
1411	 0.114271529018879 
1412	 0.114389315247536 
1413	 0.114766493439674 
1414	 0.115378983318806 
1415	 0.116195619106293 
1416	 0.117253333330154 
1417	 0.118461653590202 
1418	 0.119965180754662 
1419	 0.121408835053444 
1420	 0.123065486550331 
1421	 0.124545328319073 
1422	 0.126044154167175 
1423	 0.127385422587395 
1424	 0.128659978508949 
1425	 0.129789650440216 
1426	 0.130781620740891 
1427	 0.131689459085464 
1428	 0.132470473647118 
1429	 0.133176326751709 
1430	 0.133782297372818 
1431	 0.134331032633781 
1432	 0.134773939847946 
1433	 0.135189101099968 
1434	 0.135552138090134 
1435	 0.135855510830879 
1436	 0.136140540242195 
1437	 0.136402100324631 
1438	 0.136615827679634 
1439	 0.136806279420853 
1440	 0.136955499649048 
1441	 0.137041881680489 
1442	 0.137117728590965 
1443	 0.137192890048027 
1444	 0.137247711420059 
1445	 0.137292787432671 
1446	 0.137317016720772 
1447	 0.137318044900894 
1448	 0.137319698929787 
1449	 0.137294352054596 
1450	 0.137302577495575 
1451	 0.137333676218987 
1452	 0.137331336736679 
1453	 0.137335479259491 
1454	 0.137318402528763 
1455	 0.137263089418411 
1456	 0.137235879898071 
1457	 0.137221395969391 
1458	 0.137180164456367 
1459	 0.137115240097046 
1460	 0.137089520692825 
1461	 0.137076288461685 
1462	 0.137052625417709 
1463	 0.137050271034241 
1464	 0.137041538953781 
1465	 0.137019336223602 
1466	 0.136991903185844 
1467	 0.136967211961746 
1468	 0.136947125196457 
1469	 0.136922791600227 
1470	 0.136892378330231 
1471	 0.136870354413986 
1472	 0.136836796998978 
1473	 0.136776834726334 
1474	 0.136730074882507 
1475	 0.136660784482956 
1476	 0.136661574244499 
1477	 0.136688455939293 
1478	 0.136649429798126 
1479	 0.136621072888374 
1480	 0.136618629097939 
1481	 0.136582896113396 
1482	 0.136540561914444 
1483	 0.136503711342812 
1484	 0.1364716142416 
1485	 0.136449292302132 
1486	 0.136421412229538 
1487	 0.136381655931473 
1488	 0.136330977082253 
1489	 0.136288061738014 
1490	 0.136278301477432 
1491	 0.136274471879005 
1492	 0.13623708486557 
1493	 0.13620500266552 
1494	 0.136156320571899 
1495	 0.136100441217422 
1496	 0.136035963892937 
1497	 0.136004909873009 
1498	 0.135967969894409 
1499	 0.135934665799141 
1500	 0.135937705636024 
1501	 0.13591505587101 
1502	 0.135880544781685 
1503	 0.135833323001862 
1504	 0.135770365595818 
1505	 0.135723769664764 
1506	 0.13566067814827 
1507	 0.135620042681694 
1508	 0.135616838932037 
1509	 0.135587021708488 
1510	 0.135541453957558 
1511	 0.135501682758331 
1512	 0.135449334979057 
1513	 0.135424792766571 
1514	 0.135423541069031 
1515	 0.135409027338028 
1516	 0.135401889681816 
1517	 0.135386914014816 
1518	 0.135374650359154 
1519	 0.13534551858902 
1520	 0.135304138064384 
1521	 0.135266184806824 
1522	 0.135201141238213 
1523	 0.135154098272324 
1524	 0.135138854384422 
1525	 0.135103166103363 
1526	 0.13505545258522 
1527	 0.135008752346039 
1528	 0.134949013590813 
1529	 0.134896397590637 
1530	 0.134851738810539 
1531	 0.134810909628868 
1532	 0.134733259677887 
1533	 0.134663790464401 
1534	 0.1346165984869 
1535	 0.134580418467522 
1536	 0.13458089530468 
1537	 0.134567454457283 
1538	 0.134488672018051 
1539	 0.134416714310646 
1540	 0.1343804448843 
1541	 0.13433949649334 
1542	 0.134334698319435 
1543	 0.134326219558716 
1544	 0.13425301015377 
1545	 0.134167745709419 
1546	 0.134131759405136 
1547	 0.13410958647728 
1548	 0.134067550301552 
1549	 0.134053245186806 
1550	 0.133992284536362 
1551	 0.133902713656425 
1552	 0.13389678299427 
1553	 0.133871898055077 
1554	 0.13381615281105 
1555	 0.133794039487839 
1556	 0.133724063634872 
1557	 0.133633881807327 
1558	 0.133585542440414 
1559	 0.133526101708412 
1560	 0.133472889661789 
1561	 0.133446678519249 
1562	 0.133399829268456 
1563	 0.133333459496498 
1564	 0.133275911211967 
1565	 0.133218809962273 
1566	 0.133157551288605 
1567	 0.133132591843605 
1568	 0.133088871836662 
1569	 0.133035838603973 
1570	 0.132976517081261 
1571	 0.132910132408142 
1572	 0.132853537797928 
1573	 0.132792934775352 
1574	 0.132754474878311 
1575	 0.132734954357147 
1576	 0.132703870534897 
1577	 0.132691770792007 
1578	 0.132629156112671 
1579	 0.132529377937317 
1580	 0.132472276687622 
1581	 0.132396340370178 
1582	 0.132359996438026 
1583	 0.132378458976746 
1584	 0.132348790764809 
1585	 0.132305756211281 
1586	 0.132257923483849 
1587	 0.132205218076706 
1588	 0.132149592041969 
1589	 0.132079616189003 
1590	 0.13202328979969 
1591	 0.131959140300751 
1592	 0.131903514266014 
1593	 0.131864234805107 
1594	 0.131821796298027 
1595	 0.131781965494156 
1596	 0.131742298603058 
1597	 0.131704702973366 
1598	 0.131669551134109 
1599	 0.131639182567596 
1600	 0.131593897938728 
1601	 0.131555110216141 
1602	 0.131487503647804 
1603	 0.131370440125465 
1604	 0.131314545869827 
1605	 0.131272166967392 
1606	 0.131236553192139 
1607	 0.131269991397858 
1608	 0.131230548024178 
1609	 0.131130307912827 
1610	 0.131067678332329 
1611	 0.130981102585793 
1612	 0.130929246544838 
1613	 0.130941122770309 
1614	 0.130912125110626 
1615	 0.130861297249794 
1616	 0.130819708108902 
1617	 0.130755007266998 
1618	 0.130701154470444 
1619	 0.130677059292793 
1620	 0.130641967058182 
1621	 0.130609109997749 
1622	 0.130556911230087 
1623	 0.130475267767906 
1624	 0.13041789829731 
1625	 0.130364626646042 
1626	 0.130308166146278 
1627	 0.130262240767479 
1628	 0.130221500992775 
1629	 0.130189806222916 
1630	 0.130126148462296 
1631	 0.130044385790825 
1632	 0.129995346069336 
1633	 0.129931211471558 
1634	 0.129875987768173 
1635	 0.129882201552391 
1636	 0.129826068878174 
1637	 0.129708811640739 
1638	 0.129641056060791 
1639	 0.129562243819237 
1640	 0.129504457116127 
1641	 0.129502788186073 
1642	 0.129455521702766 
1643	 0.129378572106361 
1644	 0.12932875752449 
1645	 0.129272863268852 
1646	 0.129220858216286 
1647	 0.129188537597656 
1648	 0.129168048501015 
1649	 0.129156768321991 
1650	 0.129121035337448 
1651	 0.129081532359123 
1652	 0.129032075405121 
1653	 0.128956273198128 
1654	 0.12890450656414 
1655	 0.128893047571182 
1656	 0.12884247303009 
1657	 0.128744632005692 
1658	 0.128699064254761 
1659	 0.128666773438454 
1660	 0.128619492053986 
1661	 0.128606513142586 
1662	 0.128570944070816 
1663	 0.128505289554596 
1664	 0.12842746078968 
1665	 0.128335818648338 
1666	 0.128281727433205 
1667	 0.128253176808357 
1668	 0.128230586647987 
1669	 0.128196895122528 
1670	 0.12816096842289 
1671	 0.128069296479225 
1672	 0.127991423010826 
1673	 0.127963989973068 
1674	 0.127905681729317 
1675	 0.127861112356186 
1676	 0.127818539738655 
1677	 0.127747520804405 
1678	 0.127698257565498 
1679	 0.127645999193192 
1680	 0.127586603164673 
1681	 0.12757283449173 
1682	 0.127547338604927 
1683	 0.127484679222107 
1684	 0.127446666359901 
1685	 0.127396151423454 
1686	 0.127325221896172 
1687	 0.127280727028847 
1688	 0.127214983105659 
1689	 0.127136185765266 
1690	 0.127088591456413 
1691	 0.127039924263954 
1692	 0.127020061016083 
1693	 0.1269750893116 
1694	 0.126895666122437 
1695	 0.126861289143562 
1696	 0.126787602901459 
1697	 0.126720771193504 
1698	 0.126704409718513 
1699	 0.126632496714592 
1700	 0.126549392938614 
1701	 0.126503095030785 
1702	 0.126463681459427 
1703	 0.126385480165482 
1704	 0.1263178139925 
1705	 0.126304969191551 
1706	 0.126248076558113 
1707	 0.126208201050758 
1708	 0.126228272914886 
1709	 0.12618499994278 
1710	 0.126125782728195 
1711	 0.126067712903023 
1712	 0.125967174768448 
1713	 0.125901237130165 
1714	 0.125824943184853 
1715	 0.12577448785305 
1716	 0.125738322734833 
1717	 0.125621572136879 
1718	 0.12555019557476 
1719	 0.125523060560226 
1720	 0.125481650233269 
1721	 0.125464230775833 
1722	 0.125430926680565 
1723	 0.125309839844704 
1724	 0.125191271305084 
1725	 0.125145897269249 
1726	 0.125112518668175 
1727	 0.125070720911026 
1728	 0.12503556907177 
1729	 0.124989837408066 
1730	 0.124937660992146 
1731	 0.124887138605118 
1732	 0.124831572175026 
1733	 0.124796368181705 
1734	 0.124783344566822 
1735	 0.124731220304966 
1736	 0.124680072069168 
1737	 0.124583214521408 
1738	 0.124481961131096 
1739	 0.12441224604845 
1740	 0.124350354075432 
1741	 0.12427481263876 
1742	 0.124221868813038 
1743	 0.124194972217083 
1744	 0.124127559363842 
1745	 0.124095551669598 
1746	 0.124056629836559 
1747	 0.123983055353165 
1748	 0.123980775475502 
1749	 0.123954080045223 
1750	 0.123938255012035 
1751	 0.123930424451828 
1752	 0.123839840292931 
1753	 0.123772859573364 
1754	 0.123711310327053 
1755	 0.123626492917538 
1756	 0.123570539057255 
1757	 0.123490579426289 
1758	 0.123387068510056 
1759	 0.123331271111965 
1760	 0.123317532241344 
1761	 0.123296916484833 
1762	 0.12325119972229 
1763	 0.123185776174068 
1764	 0.123087875545025 
1765	 0.122985489666462 
1766	 0.122938521206379 
1767	 0.122903034090996 
1768	 0.122874677181244 
1769	 0.122882097959518 
1770	 0.122878715395927 
1771	 0.122846707701683 
1772	 0.12274469435215 
1773	 0.122647494077682 
1774	 0.122584499418736 
1775	 0.122505776584148 
1776	 0.122512839734554 
1777	 0.122500218451023 
1778	 0.122460499405861 
1779	 0.12238534539938 
1780	 0.122304812073708 
1781	 0.12227476388216 
1782	 0.122255377471447 
1783	 0.122233167290688 
1784	 0.122249148786068 
1785	 0.12223556637764 
1786	 0.122215785086155 
1787	 0.12223793566227 
1788	 0.122172422707081 
1789	 0.122100211679935 
1790	 0.122068360447884 
1791	 0.121970571577549 
1792	 0.121883288025856 
1793	 0.121837340295315 
1794	 0.121793709695339 
1795	 0.1217957213521 
1796	 0.121815823018551 
1797	 0.121784582734108 
1798	 0.121715269982815 
1799	 0.121631763875484 
1800	 0.121565468609333 
1801	 0.121531695127487 
1802	 0.12148792296648 
1803	 0.121444620192051 
1804	 0.121426723897457 
1805	 0.12141016125679 
1806	 0.121391154825687 
1807	 0.121346667408943 
1808	 0.12124290317297 
1809	 0.121113978326321 
1810	 0.121035918593407 
1811	 0.121008716523647 
1812	 0.12099327892065 
1813	 0.121062114834785 
1814	 0.121038690209389 
1815	 0.120956853032112 
1816	 0.120900005102158 
1817	 0.120848447084427 
1818	 0.120728850364685 
1819	 0.120645120739937 
1820	 0.120551504194736 
1821	 0.120409615337849 
1822	 0.12036420404911 
1823	 0.120331451296806 
1824	 0.120257318019867 
1825	 0.120214700698853 
1826	 0.120129592716694 
1827	 0.120052270591259 
1828	 0.120021380484104 
1829	 0.119972035288811 
1830	 0.119972728192806 
1831	 0.119904302060604 
1832	 0.119884431362152 
1833	 0.119872733950615 
1834	 0.120001703500748 
1835	 0.120016470551491 
1836	 0.119911573827267 
1837	 0.119889207184315 
1838	 0.11994918435812 
1839	 0.119853816926479 
1840	 0.119761131703854 
1841	 0.119678661227226 
1842	 0.119489528238773 
1843	 0.119383968412876 
1844	 0.119337484240532 
1845	 0.119342997670174 
1846	 0.119360029697418 
1847	 0.119479767978191 
1848	 0.119519606232643 
1849	 0.119431838393211 
1850	 0.119442775845528 
1851	 0.119404323399067 
1852	 0.119277454912663 
1853	 0.1192621961236 
1854	 0.11924584209919 
1855	 0.119219958782196 
1856	 0.119226939976215 
1857	 0.119185782968998 
1858	 0.119111806154251 
1859	 0.1190395206213 
1860	 0.11900620162487 
1861	 0.11890522390604 
1862	 0.11880986392498 
1863	 0.11870202422142 
1864	 0.118575051426888 
1865	 0.118504501879215 
1866	 0.11843616515398 
1867	 0.118428416550159 
1868	 0.118392452597618 
1869	 0.118350423872471 
1870	 0.118320621550083 
1871	 0.118214480578899 
1872	 0.118037849664688 
1873	 0.117845602333546 
1874	 0.117666572332382 
1875	 0.117573961615562 
1876	 0.117478772997856 
1877	 0.117322519421577 
1878	 0.117152497172356 
1879	 0.116939216852188 
1880	 0.116664260625839 
1881	 0.116398200392723 
1882	 0.116227805614471 
1883	 0.116067856550217 
1884	 0.115825861692429 
1885	 0.115626201033592 
1886	 0.115430153906345 
1887	 0.11511455476284 
1888	 0.114836573600769 
1889	 0.114556469023228 
1890	 0.114308044314384 
1891	 0.114021256566048 
1892	 0.113772325217724 
1893	 0.113503538072109 
1894	 0.113214276731014 
1895	 0.112964689731598 
1896	 0.112713187932968 
1897	 0.112465880811214 
1898	 0.11227111518383 
1899	 0.112032204866409 
1900	 0.111779563128948 
1901	 0.11147753149271 
1902	 0.11122714728117 
1903	 0.11095830053091 
1904	 0.110714308917522 
1905	 0.110581941902637 
1906	 0.110436029732227 
1907	 0.110259890556335 
1908	 0.11010267585516 
1909	 0.109897240996361 
1910	 0.109705910086632 
1911	 0.109485097229481 
1912	 0.109334923326969 
1913	 0.109237246215343 
1914	 0.109179347753525 
1915	 0.109110504388809 
1916	 0.109037138521671 
1917	 0.108990825712681 
1918	 0.10887448489666 
1919	 0.1087926030159 
1920	 0.108723439276218 
1921	 0.108531907200813 
1922	 0.108441017568111 
1923	 0.108394876122475 
1924	 0.108378894627094 
1925	 0.10836173593998 
1926	 0.108456388115883 
1927	 0.108401209115982 
1928	 0.108327969908714 
1929	 0.108325757086277 
1930	 0.108233645558357 
1931	 0.108250387012959 
1932	 0.108268670737743 
1933	 0.108230039477348 
1934	 0.108135372400284 
1935	 0.108101606369019 
1936	 0.107985198497772 
1937	 0.107862003147602 
1938	 0.107859700918198 
1939	 0.107841677963734 
1940	 0.10784337669611 
1941	 0.107949957251549 
1942	 0.107960686087608 
1943	 0.107896402478218 
1944	 0.107881933450699 
1945	 0.107844062149525 
1946	 0.107817843556404 
1947	 0.107789978384972 
1948	 0.107863306999207 
1949	 0.107878163456917 
1950	 0.107915639877319 
1951	 0.108002483844757 
1952	 0.108021661639214 
1953	 0.107984744012356 
1954	 0.107999704778194 
1955	 0.10801550000906 
1956	 0.107961617410183 
1957	 0.107978284358978 
1958	 0.108096122741699 
1959	 0.108130529522896 
1960	 0.108127057552338 
1961	 0.108179457485676 
1962	 0.108163051307201 
1963	 0.108068265020847 
1964	 0.108103029429913 
1965	 0.108132436871529 
1966	 0.108200803399086 
1967	 0.108308807015419 
1968	 0.10834426432848 
1969	 0.108316227793694 
1970	 0.108350701630116 
1971	 0.108359292149544 
1972	 0.108398273587227 
1973	 0.10851527005434 
1974	 0.108531661331654 
1975	 0.108531661331654 
1976	 0.108616180717945 
1977	 0.108663506805897 
1978	 0.108663000166416 
1979	 0.108663409948349 
1980	 0.108671247959137 
1981	 0.108679868280888 
1982	 0.108652368187904 
1983	 0.108698911964893 
1984	 0.108796417713165 
1985	 0.108866520226002 
1986	 0.108964413404465 
1987	 0.109067857265472 
1988	 0.109088562428951 
1989	 0.109114319086075 
1990	 0.10907020419836 
1991	 0.109070211648941 
1992	 0.109117671847343 
1993	 0.109054297208786 
1994	 0.109088085591793 
1995	 0.109172478318214 
1996	 0.109234489500523 
1997	 0.109385706484318 
1998	 0.109460435807705 
1999	 0.109486117959023 
2000	 0.109484747052193 
2001	 0.109554126858711 
2002	 0.109549403190613 
2003	 0.109493963420391 
2004	 0.109553262591362 
2005	 0.10964472591877 
2006	 0.10960403829813 
2007	 0.109637878835201 
2008	 0.109796017408371 
2009	 0.109840519726276 
2010	 0.109791494905949 
2011	 0.109834745526314 
2012	 0.109964184463024 
2013	 0.109895326197147 
2014	 0.109904080629349 
2015	 0.11001742631197 
2016	 0.11004826426506 
2017	 0.110126085579395 
2018	 0.110171161592007 
2019	 0.110117346048355 
2020	 0.110093221068382 
2021	 0.10994803160429 
2022	 0.110005408525467 
2023	 0.110229812562466 
2024	 0.110330827534199 
2025	 0.110532820224762 
2026	 0.110598050057888 
2027	 0.110529981553555 
2028	 0.110428348183632 
2029	 0.110422998666763 
2030	 0.110466547310352 
2031	 0.110504500567913 
2032	 0.110508695244789 
2033	 0.110508419573307 
2034	 0.11052268743515 
2035	 0.110523499548435 
2036	 0.110561057925224 
2037	 0.110571756958961 
2038	 0.110516272485256 
2039	 0.110523335635662 
2040	 0.110589995980263 
2041	 0.11061318218708 
2042	 0.110628247261047 
2043	 0.110667802393436 
2044	 0.110653154551983 
2045	 0.110640630125999 
2046	 0.110671415925026 
2047	 0.110651105642319 
2048	 0.110657908022404 
2049	 0.110700115561485 
2050	 0.110677525401115 
2051	 0.110591910779476 
2052	 0.110603958368301 
2053	 0.11061143130064 
2054	 0.110634699463844 
2055	 0.110788740217686 
2056	 0.110828176140785 
2057	 0.110774703323841 
2058	 0.110774196684361 
2059	 0.110756561160088 
2060	 0.110707677900791 
2061	 0.110719703137875 
2062	 0.110708236694336 
2063	 0.110729098320007 
2064	 0.110765434801579 
2065	 0.110753796994686 
2066	 0.110713914036751 
2067	 0.110697835683823 
2068	 0.110638007521629 
2069	 0.110626250505447 
2070	 0.110690169036388 
2071	 0.110692493617535 
2072	 0.110671103000641 
2073	 0.110660582780838 
2074	 0.110624074935913 
2075	 0.110540345311165 
2076	 0.110529616475105 
2077	 0.110518001019955 
2078	 0.110482066869736 
2079	 0.110505126416683 
2080	 0.110480256378651 
2081	 0.110447354614735 
2082	 0.110357627272606 
2083	 0.110202893614769 
2084	 0.110115341842175 
2085	 0.110009141266346 
2086	 0.109909549355507 
2087	 0.109877854585648 
2088	 0.10980024933815 
2089	 0.10962650924921 
2090	 0.109583511948586 
2091	 0.10958344489336 
2092	 0.109488859772682 
2093	 0.109426654875278 
2094	 0.109270565211773 
2095	 0.109047688543797 
2096	 0.108933337032795 
2097	 0.108806423842907 
2098	 0.108736872673035 
2099	 0.108587808907032 
2100	 0.108350619673729 
2101	 0.108215346932411 
2102	 0.10809151083231 
2103	 0.107991345226765 
2104	 0.108046814799309 
2105	 0.107980497181416 
2106	 0.107878163456917 
2107	 0.107654914259911 
2108	 0.107467956840992 
2109	 0.107315331697464 
2110	 0.107163973152637 
2111	 0.107045896351337 
2112	 0.106987833976746 
2113	 0.106934629380703 
2114	 0.106885872781277 
2115	 0.106904558837414 
2116	 0.106853023171425 
2117	 0.106738157570362 
2118	 0.106684789061546 
2119	 0.106610096991062 
2120	 0.106601618230343 
2121	 0.106660075485706 
2122	 0.106701917946339 
2123	 0.106829799711704 
2124	 0.106866300106049 
2125	 0.106844760477543 
2126	 0.106828242540359 
2127	 0.106821544468403 
2128	 0.106759987771511 
2129	 0.106755346059799 
2130	 0.106835409998894 
2131	 0.106866858899593 
2132	 0.10681739449501 
2133	 0.106804862618446 
2134	 0.106805354356766 
2135	 0.106748439371586 
2136	 0.10668621212244 
2137	 0.106619819998741 
2138	 0.106479145586491 
2139	 0.106369353830814 
2140	 0.106280587613583 
2141	 0.106185771524906 
2142	 0.106123462319374 
2143	 0.106014631688595 
2144	 0.105912670493126 
2145	 0.105721078813076 
2146	 0.105527602136135 
2147	 0.105353973805904 
2148	 0.105213016271591 
2149	 0.105064690113068 
2150	 0.104791417717934 
2151	 0.104538559913635 
2152	 0.104307696223259 
2153	 0.104062281548977 
2154	 0.103791192173958 
2155	 0.103579051792622 
2156	 0.10325500369072 
2157	 0.102820165455341 
2158	 0.102438434958458 
2159	 0.102018006145954 
2160	 0.101632706820965 
2161	 0.101347208023071 
2162	 0.100921347737312 
2163	 0.100420236587524 
2164	 9.99374240636826E-02 
2165	 9.93846356868744E-02 
2166	 0.098776750266552 
2167	 9.81357619166374E-02 
2168	 9.74460318684578E-02 
2169	 9.67638567090034E-02 
2170	 9.60090979933739E-02 
2171	 9.53210443258286E-02 
2172	 9.46322530508041E-02 
2173	 9.38524082303047E-02 
2174	 9.29891839623451E-02 
2175	 9.21825394034386E-02 
2176	 0.091383159160614 
2177	 9.04722139239311E-02 
2178	 8.95136743783951E-02 
2179	 8.85729715228081E-02 
2180	 8.75094532966614E-02 
2181	 8.65151584148407E-02 
2182	 0.085646852850914 
2183	 8.46681445837021E-02 
2184	 8.35572555661201E-02 
2185	 8.25754106044769E-02 
2186	 8.16617608070374E-02 
2187	 8.06071162223816E-02 
2188	 7.98140913248062E-02 
2189	 7.91117995977402E-02 
2190	 7.82951489090919E-02 
2191	 7.76824206113815E-02 
2192	 7.71417841315269E-02 
2193	 7.64905884861946E-02 
2194	 7.59648457169533E-02 
2195	 7.55786746740341E-02 
2196	 7.53025412559509E-02 
2197	 7.50841870903969E-02 
2198	 7.49966725707054E-02 
2199	 7.51448348164558E-02 
2200	 7.52109214663506E-02 
2201	 7.52759650349617E-02 
2202	 7.54173547029495E-02 
2203	 0.075549803674221 
2204	 7.58545473217964E-02 
2205	 7.63246864080429E-02 
2206	 7.67652690410614E-02 
2207	 7.72989466786385E-02 
2208	 7.78349116444588E-02 
2209	 0.078371450304985 
2210	 7.89550691843033E-02 
2211	 7.95714408159256E-02 
2212	 8.02623182535172E-02 
2213	 8.10530260205269E-02 
2214	 8.16636830568314E-02 
2215	 8.23059529066086E-02 
2216	 8.31021890044212E-02 
2217	 8.39217901229858E-02 
2218	 0.084690548479557 
2219	 8.53230208158493E-02 
2220	 8.59445035457611E-02 
2221	 8.65255892276764E-02 
2222	 8.70550647377968E-02 
2223	 8.75839293003082E-02 
2224	 8.82009714841843E-02 
2225	 8.86877924203873E-02 
2226	 8.90402942895889E-02 
2227	 8.94399508833885E-02 
2228	 8.98932963609695E-02 
2229	 9.01924520730972E-02 
2230	 9.03027057647705E-02 
2231	 9.06400382518768E-02 
2232	 9.10810530185699E-02 
2233	 9.13703069090843E-02 
2234	 9.16848927736282E-02 
2235	 0.091996893286705 
2236	 9.21513214707375E-02 
2237	 9.23705548048019E-02 
2238	 9.26968976855278E-02 
2239	 9.30524468421936E-02 
2240	 9.32337194681168E-02 
2241	 9.33391973376274E-02 
2242	 9.34312343597412E-02 
2243	 9.35177132487297E-02 
2244	 9.36131551861763E-02 
2245	 0.093782939016819 
2246	 0.094057597219944 
2247	 9.42710414528847E-02 
2248	 9.44188311696053E-02 
2249	 9.46058183908463E-02 
2250	 9.47276800870895E-02 
2251	 9.48489829897881E-02 
2252	 9.49360579252243E-02 
2253	 9.50132310390472E-02 
2254	 9.50660854578018E-02 
2255	 9.49940383434296E-02 
2256	 9.51170772314072E-02 
2257	 9.54327806830406E-02 
2258	 9.55760180950165E-02 
2259	 9.56998690962791E-02 
2260	 9.58272963762283E-02 
2261	 9.58732292056084E-02 
2262	 9.59251001477242E-02 
2263	 9.60284098982811E-02 
2264	 9.61137562990189E-02 
2265	 9.60902571678162E-02 
2266	 9.61485579609871E-02 
2267	 9.63284224271774E-02 
2268	 9.63856652379036E-02 
2269	 9.64460372924805E-02 
2270	 9.64429080486298E-02 
2271	 9.63074490427971E-02 
2272	 9.62066873908043E-02 
2273	 0.096268393099308 
2274	 9.62058007717133E-02 
2275	 9.61851924657822E-02 
2276	 9.63082239031792E-02 
2277	 9.63138490915298E-02 
2278	 9.63470339775085E-02 
2279	 9.62959304451942E-02 
2280	 9.59905013442039E-02 
2281	 9.57162454724312E-02 
2282	 9.56149771809578E-02 
2283	 9.55885723233223E-02 
2284	 9.55739319324493E-02 
2285	 9.54550951719284E-02 
2286	 9.52493995428085E-02 
2287	 9.52626168727875E-02 
2288	 9.53635051846504E-02 
2289	 9.52715054154396E-02 
2290	 9.50536280870438E-02 
2291	 9.48840156197548E-02 
2292	 9.45147722959518E-02 
2293	 9.42670181393623E-02 
2294	 9.41533669829369E-02 
2295	 9.39490348100662E-02 
2296	 9.36424434185028E-02 
2297	 9.33702811598778E-02 
2298	 9.31578576564789E-02 
2299	 9.29351821541786E-02 
2300	 0.092644676566124 
2301	 0.0924062281847 
2302	 9.23086330294609E-02 
2303	 9.20400321483612E-02 
2304	 9.15937796235085E-02 
2305	 9.12925228476524E-02 
2306	 9.10079032182693E-02 
2307	 9.06910970807076E-02 
2308	 9.04583036899567E-02 
2309	 9.02430787682533E-02 
2310	 8.99614617228508E-02 
2311	 0.089669443666935 
2312	 8.94774943590164E-02 
2313	 8.91802683472633E-02 
2314	 0.088701419532299 
2315	 8.83917510509491E-02 
2316	 8.81754383444786E-02 
2317	 8.79454091191292E-02 
2318	 8.76146480441093E-02 
2319	 8.71611461043358E-02 
2320	 8.66104811429977E-02 
2321	 8.61521288752556E-02 
2322	 8.57625305652618E-02 
2323	 8.54494795203209E-02 
2324	 8.50641056895256E-02 
2325	 8.45676064491272E-02 
2326	 8.43771696090698E-02 
2327	 8.40790495276451E-02 
2328	 0.083552211523056 
2329	 8.33472236990929E-02 
2330	 8.29789564013481E-02 
2331	 0.082436591386795 
2332	 8.23923647403717E-02 
2333	 8.22187513113022E-02 
2334	 8.16302448511124E-02 
2335	 8.13993215560913E-02 
2336	 8.12611877918243E-02 
2337	 8.09066072106361E-02 
2338	 8.07391628623009E-02 
2339	 8.06355997920036E-02 
2340	 8.02829638123512E-02 
2341	 7.99462050199509E-02 
2342	 7.98520892858505E-02 
2343	 7.97853246331215E-02 
2344	 7.97291919589043E-02 
2345	 7.95939266681671E-02 
2346	 7.93657153844833E-02 
2347	 7.92946740984917E-02 
2348	 7.91781395673752E-02 
2349	 7.90494158864021E-02 
2350	 7.90379568934441E-02 
2351	 0.079104520380497 
2352	 7.91503861546516E-02 
2353	 7.92495086789131E-02 
2354	 7.93748125433922E-02 
2355	 7.94965103268623E-02 
2356	 7.96925127506256E-02 
2357	 8.01062062382698E-02 
2358	 8.02070498466492E-02 
2359	 8.01013186573982E-02 
2360	 8.01887810230255E-02 
2361	 8.01754742860794E-02 
2362	 8.02329853177071E-02 
2363	 8.04887115955353E-02 
2364	 8.06711986660957E-02 
2365	 8.08119252324104E-02 
2366	 8.08940902352333E-02 
2367	 8.10176357626915E-02 
2368	 8.10029953718185E-02 
2369	 8.06509479880333E-02 
2370	 8.07165503501892E-02 
2371	 8.11734572052956E-02 
2372	 8.12439247965813E-02 
2373	 8.13191682100296E-02 
2374	 8.12859311699867E-02 
2375	 8.08483734726906E-02 
2376	 8.06319043040276E-02 
2377	 8.04775431752205E-02 
2378	 8.05703699588776E-02 
2379	 8.09244960546494E-02 
2380	 8.09418112039566E-02 
2381	 8.10426473617554E-02 
2382	 8.10377448797226E-02 
2383	 8.06284919381142E-02 
2384	 8.04217457771301E-02 
2385	 8.04583802819252E-02 
2386	 8.03242549300194E-02 
2387	 7.99224823713303E-02 
2388	 7.99623653292656E-02 
2389	 8.02774354815483E-02 
2390	 8.03208202123642E-02 
2391	 8.04862454533577E-02 
2392	 8.05451273918152E-02 
2393	 8.04666802287102E-02 
2394	 8.03671926259995E-02 
2395	 8.02856609225273E-02 
2396	 8.01255851984024E-02 
2397	 7.96159952878952E-02 
2398	 7.94114097952843E-02 
2399	 7.94762521982193E-02 
2400	 7.93918371200562E-02 
2401	 7.93251246213913E-02 
2402	 7.93667659163475E-02 
2403	 7.93982297182083E-02 
2404	 7.94283226132393E-02 
2405	 7.97075554728508E-02 
2406	 7.95729532837868E-02 
2407	 7.92385190725327E-02 
2408	 7.88123160600662E-02 
2409	 7.78246372938156E-02 
2410	 7.75967165827751E-02 
2411	 7.77862146496773E-02 
2412	 7.77129158377647E-02 
2413	 7.79905244708061E-02 
2414	 7.79101550579071E-02 
2415	 0.077436663210392 
2416	 7.70751014351845E-02 
2417	 7.67412185668945E-02 
2418	 7.65835419297218E-02 
2419	 7.64409005641937E-02 
2420	 7.61016234755516E-02 
2421	 7.57413506507874E-02 
2422	 7.54966735839844E-02 
2423	 7.51278176903725E-02 
2424	 7.49272927641869E-02 
2425	 0.075040303170681 
2426	 7.50068426132202E-02 
2427	 7.48247131705284E-02 
2428	 0.074741929769516 
2429	 7.48342499136925E-02 
2430	 7.46438577771187E-02 
2431	 7.43808448314667E-02 
2432	 7.40061700344086E-02 
2433	 7.31831341981888E-02 
2434	 7.30368867516518E-02 
2435	 7.30638727545738E-02 
2436	 7.32232853770256E-02 
2437	 7.41631165146828E-02 
2438	 7.42488950490952E-02 
2439	 7.38268420100212E-02 
2440	 7.38853439688683E-02 
2441	 7.38577768206596E-02 
2442	 0.073613129556179 
2443	 7.34729394316673E-02 
2444	 7.35429227352142E-02 
2445	 7.33414590358734E-02 
2446	 7.33839124441147E-02 
2447	 7.41299465298653E-02 
2448	 7.40455389022827E-02 
2449	 7.32115209102631E-02 
2450	 7.33317509293556E-02 
2451	 7.36849159002304E-02 
2452	 7.38150849938393E-02 
2453	 0.074358306825161 
2454	 7.41463378071785E-02 
2455	 7.44269341230392E-02 
2456	 7.42879435420036E-02 
2457	 7.41679891943932E-02 
2458	 7.50599205493927E-02 
2459	 7.54330530762672E-02 
2460	 0.075586773455143 
2461	 7.62642920017242E-02 
2462	 0.076333612203598 
2463	 7.53274708986282E-02 
2464	 7.52473622560501E-02 
2465	 7.51453042030334E-02 
2466	 7.45435655117035E-02 
2467	 7.45470821857452E-02 
2468	 7.53566697239876E-02 
2469	 7.56047070026398E-02 
2470	 7.60143175721169E-02 
2471	 7.62225538492203E-02 
2472	 7.58556500077248E-02 
2473	 0.075591467320919 
2474	 7.49331638216972E-02 
2475	 7.49973505735397E-02 
2476	 7.59526416659355E-02 
2477	 7.60180726647377E-02 
2478	 7.59451687335968E-02 
2479	 7.60887935757637E-02 
2480	 7.54504054784775E-02 
2481	 7.53126740455627E-02 
2482	 7.61871859431267E-02 
2483	 7.63915032148361E-02 
2484	 0.076155960559845 
2485	 7.59710893034935E-02 
2486	 7.52015262842178E-02 
2487	 7.54294469952583E-02 
2488	 7.66382217407227E-02 
2489	 7.67375305294991E-02 
2490	 7.69279450178146E-02 
2491	 7.69147351384163E-02 
2492	 7.54270479083061E-02 
2493	 7.54425898194313E-02 
2494	 7.67596662044525E-02 
2495	 7.72892013192177E-02 
2496	 7.82149434089661E-02 
2497	 7.82781094312668E-02 
2498	 7.74060934782028E-02 
2499	 7.72581398487091E-02 
2500	 7.69813060760498E-02 
