
Text conversion of header file \A_MEDIDAS\PROJETOS\BRASIL\BLOCO GAVIAO\JACOBINA\CANIF27\sco\CANIF27_023.26_00002.asd.ref
 -------------------------------------------------------------
                                                                                                                                                            
The instrument number was  16586/1
New ASD spectrum file: Program version = 6.00 file version = 1.00
Spectrum saved: 10/16/2018 at 10:07:26
VNIR integration time : 34
VNIR channel 1 wavelength = 350 wavelength step = 1
There were 50 samples per data value
xmin = 350 xmax= 2500
ymin= 0 ymax= 1.25
The instrument digitizes spectral values to 16 bits
SWIR1 gain was 214 offset was 2097
SWIR2 gain was 513 offset was 2267
Join between VNIR and SWIR1 was 1000 nm
Join between SWIR1 and SWIR2 was 1830 nm
Absolute Reflectance is Enabled
The Absolute Reflectance File is abs165861.ref
VNIR dark signal subtracted
50 dark measurements taken Tue Oct 16 09:52:54 2018
DCC value was 0
Data is compared to a white reference:
60 white reference measurements taken Tue Oct 16 09:53:02 2018
There was no foreoptic attached
Spectrum file is reflectance data
GPS-Latitude is S0
GPS-Longitude is E0
GPS-Altitude is 0
GPS-UTC is Wed Dec 31 17:00:00 1969

Smart Detector
Serial#  0
Signal (A)  0.000E00
Dark (A)  0.000E00
Ref (A)  0.000E00
Status  0 - Uninitialized
Gain  E-4
Averaging  0
Temp (C)  0.0
Humid (%)  0.0

Reflectance Absolute
Wavelength	CANIF27_23.26_00002.asd.ref
350	 0.127352580428123 
351	 0.129961207509041 
352	 0.133070081472397 
353	 0.134350463747978 
354	 0.13345567882061 
355	 0.136186927556992 
356	 0.137775003910065 
357	 0.136579975485802 
358	 0.132453009486198 
359	 0.125394701957703 
360	 0.126702129840851 
361	 0.133007302880287 
362	 0.132507473230362 
363	 0.130846798419952 
364	 0.13214148581028 
365	 0.135787919163704 
366	 0.135384455323219 
367	 0.132370188832283 
368	 0.130397021770477 
369	 0.13189572095871 
370	 0.134502723813057 
371	 0.136688128113747 
372	 0.137544736266136 
373	 0.136635273694992 
374	 0.13350410759449 
375	 0.133329272270203 
376	 0.13657483458519 
377	 0.138723865151405 
378	 0.139870285987854 
379	 0.140956670045853 
380	 0.142287701368332 
381	 0.142218023538589 
382	 0.14153690636158 
383	 0.14119964838028 
384	 0.14203180372715 
385	 0.144048422574997 
386	 0.145326122641563 
387	 0.145814448595047 
388	 0.147075697779655 
389	 0.148034334182739 
390	 0.148023307323456 
391	 0.147457927465439 
392	 0.148845925927162 
393	 0.149707421660423 
394	 0.149373814463615 
395	 0.148340225219727 
396	 0.149246230721474 
397	 0.150382936000824 
398	 0.151146441698074 
399	 0.151902630925179 
400	 0.15191051363945 
401	 0.151952177286148 
402	 0.15255968272686 
403	 0.153565645217896 
404	 0.153105527162552 
405	 0.152605384588242 
406	 0.153492882847786 
407	 0.15288133919239 
408	 0.153500705957413 
409	 0.155131727457047 
410	 0.155592188239098 
411	 0.155414447188377 
412	 0.155250936746597 
413	 0.155509769916534 
414	 0.156205117702484 
415	 0.156506225466728 
416	 0.156631097197533 
417	 0.156975015997887 
418	 0.157416120171547 
419	 0.157722383737564 
420	 0.157973006367683 
421	 0.158387243747711 
422	 0.158477962017059 
423	 0.158776521682739 
424	 0.159291505813599 
425	 0.159061759710312 
426	 0.159684702754021 
427	 0.160562485456467 
428	 0.160844877362251 
429	 0.160934880375862 
430	 0.161053150892258 
431	 0.161333352327347 
432	 0.16179171204567 
433	 0.161928221583366 
434	 0.16230283677578 
435	 0.16303762793541 
436	 0.16345839202404 
437	 0.163324624300003 
438	 0.163337349891663 
439	 0.164090529084206 
440	 0.164905205368996 
441	 0.165320411324501 
442	 0.165314674377441 
443	 0.165178254246712 
444	 0.165165737271309 
445	 0.165413439273834 
446	 0.165868848562241 
447	 0.166243970394135 
448	 0.166508615016937 
449	 0.166592791676521 
450	 0.166520819067955 
451	 0.166664525866508 
452	 0.166814059019089 
453	 0.166939094662666 
454	 0.167147189378738 
455	 0.167390719056129 
456	 0.167448982596397 
457	 0.16733530163765 
458	 0.167548134922981 
459	 0.167719230055809 
460	 0.167758852243423 
461	 0.167725995182991 
462	 0.16793717443943 
463	 0.168069735169411 
464	 0.168081402778625 
465	 0.168190106749535 
466	 0.168222799897194 
467	 0.168248206377029 
468	 0.168316125869751 
469	 0.168341606855392 
470	 0.168355628848076 
471	 0.168386921286583 
472	 0.168441876769066 
473	 0.168376967310905 
474	 0.168454647064209 
475	 0.168606340885162 
476	 0.168408051133156 
477	 0.168550193309784 
478	 0.168839931488037 
479	 0.16895380616188 
480	 0.168695643544197 
481	 0.168802097439766 
482	 0.169107288122177 
483	 0.169078648090363 
484	 0.169202908873558 
485	 0.169413343071938 
486	 0.169575795531273 
487	 0.169536560773849 
488	 0.169771701097488 
489	 0.170005619525909 
490	 0.169981405138969 
491	 0.170210957527161 
492	 0.170401886105537 
493	 0.170527502894402 
494	 0.170727416872978 
495	 0.170958712697029 
496	 0.17120024561882 
497	 0.17140144109726 
498	 0.171452432870865 
499	 0.171607181429863 
500	 0.171752080321312 
501	 0.171774804592133 
502	 0.172100856900215 
503	 0.172344923019409 
504	 0.172438576817513 
505	 0.172587469220161 
506	 0.172747075557709 
507	 0.172974541783333 
508	 0.173260822892189 
509	 0.173424333333969 
510	 0.173663839697838 
511	 0.173840790987015 
512	 0.173801630735397 
513	 0.174008160829544 
514	 0.174312651157379 
515	 0.174586832523346 
516	 0.174766317009926 
517	 0.174817457795143 
518	 0.17483177781105 
519	 0.174923479557037 
520	 0.175226464867592 
521	 0.175353601574898 
522	 0.175369530916214 
523	 0.175525456666946 
524	 0.175673738121986 
525	 0.175780639052391 
526	 0.175856724381447 
527	 0.175956234335899 
528	 0.175962284207344 
529	 0.176001101732254 
530	 0.176167160272598 
531	 0.176245078444481 
532	 0.176317855715752 
533	 0.176405385136604 
534	 0.176485419273376 
535	 0.176553800702095 
536	 0.176615312695503 
537	 0.176670461893082 
538	 0.17670926451683 
539	 0.176750734448433 
540	 0.176776543259621 
541	 0.176789849996567 
542	 0.176953166723251 
543	 0.177026316523552 
544	 0.177030488848686 
545	 0.177196353673935 
546	 0.177257314324379 
547	 0.177264183759689 
548	 0.177291497588158 
549	 0.177346289157867 
550	 0.17739799618721 
551	 0.177438661456108 
552	 0.177476033568382 
553	 0.177556708455086 
554	 0.177585482597351 
555	 0.177562862634659 
556	 0.177598968148232 
557	 0.17761866748333 
558	 0.177657157182693 
559	 0.1777583360672 
560	 0.177935019135475 
561	 0.178114891052246 
562	 0.178226590156555 
563	 0.178231611847878 
564	 0.178308486938477 
565	 0.178424999117851 
566	 0.178541958332062 
567	 0.178644612431526 
568	 0.178716942667961 
569	 0.17871367931366 
570	 0.178613856434822 
571	 0.178486958146095 
572	 0.17841973900795 
573	 0.178484305739403 
574	 0.17872066795826 
575	 0.179000854492188 
576	 0.179239198565483 
577	 0.179407760500908 
578	 0.179571211338043 
579	 0.179669171571732 
580	 0.179731220006943 
581	 0.179802522063255 
582	 0.179856926202774 
583	 0.179871678352356 
584	 0.179858073592186 
585	 0.179855644702911 
586	 0.179850593209267 
587	 0.179822847247124 
588	 0.179828464984894 
589	 0.180126458406448 
590	 0.180344581604004 
591	 0.18042753636837 
592	 0.180451825261116 
593	 0.180408075451851 
594	 0.180436253547668 
595	 0.180556580424309 
596	 0.180651843547821 
597	 0.180634170770645 
598	 0.18052513897419 
599	 0.18037785589695 
600	 0.180244833230972 
601	 0.180083587765694 
602	 0.179913863539696 
603	 0.179781034588814 
604	 0.179672524333 
605	 0.179645627737045 
606	 0.179706260561943 
607	 0.179790407419205 
608	 0.179792895913124 
609	 0.17975141108036 
610	 0.179718807339668 
611	 0.17965966463089 
612	 0.179572954773903 
613	 0.179486066102982 
614	 0.179433941841125 
615	 0.179342553019524 
616	 0.179321870207787 
617	 0.179370492696762 
618	 0.179285049438477 
619	 0.179241746664047 
620	 0.179214864969254 
621	 0.179158478975296 
622	 0.179174169898033 
623	 0.179195538163185 
624	 0.179180562496185 
625	 0.179123610258102 
626	 0.179182499647141 
627	 0.179252237081528 
628	 0.179277136921883 
629	 0.17935611307621 
630	 0.179351195693016 
631	 0.179330334067345 
632	 0.179396584630013 
633	 0.179514214396477 
634	 0.179577633738518 
635	 0.179592609405518 
636	 0.179656356573105 
637	 0.179828941822052 
638	 0.179952681064606 
639	 0.179962068796158 
640	 0.18002812564373 
641	 0.180086031556129 
642	 0.180169895291328 
643	 0.180294692516327 
644	 0.180256366729736 
645	 0.180232644081116 
646	 0.180274143815041 
647	 0.180317118763924 
648	 0.180393874645233 
649	 0.180511772632599 
650	 0.18065457046032 
651	 0.180768758058548 
652	 0.180880784988403 
653	 0.180996015667915 
654	 0.181118011474609 
655	 0.181273758411407 
656	 0.18138961493969 
657	 0.181475237011909 
658	 0.181605279445648 
659	 0.181730374693871 
660	 0.181910812854767 
661	 0.18214263021946 
662	 0.182273373007774 
663	 0.182400479912758 
664	 0.182579815387726 
665	 0.182823553681374 
666	 0.183027133345604 
667	 0.183175593614578 
668	 0.183322161436081 
669	 0.183551296591759 
670	 0.183710709214211 
671	 0.183852881193161 
672	 0.184031650424004 
673	 0.184255346655846 
674	 0.18442764878273 
675	 0.184570595622063 
676	 0.184722810983658 
677	 0.184835433959961 
678	 0.184905603528023 
679	 0.184947341680527 
680	 0.184987336397171 
681	 0.185057938098907 
682	 0.185111522674561 
683	 0.185122892260551 
684	 0.185112729668617 
685	 0.185188770294189 
686	 0.185331493616104 
687	 0.185488358139992 
688	 0.185626283288002 
689	 0.185819745063782 
690	 0.186027035117149 
691	 0.186165452003479 
692	 0.186352252960205 
693	 0.186549410223961 
694	 0.186713725328445 
695	 0.186818867921829 
696	 0.187012135982513 
697	 0.187279805541039 
698	 0.187561377882957 
699	 0.187781468033791 
700	 0.187965780496597 
701	 0.188168093562126 
702	 0.188430905342102 
703	 0.188662603497505 
704	 0.188885003328323 
705	 0.189103409647942 
706	 0.189305782318115 
707	 0.189549773931503 
708	 0.189753830432892 
709	 0.18989796936512 
710	 0.190115123987198 
711	 0.190360859036446 
712	 0.190570637583733 
713	 0.190712809562683 
714	 0.190909281373024 
715	 0.191083952784538 
716	 0.191236987709999 
717	 0.191420421004295 
718	 0.191683113574982 
719	 0.191875338554382 
720	 0.191980585455894 
721	 0.192168146371841 
722	 0.19232577085495 
723	 0.192509770393372 
724	 0.192734092473984 
725	 0.192807957530022 
726	 0.19294761121273 
727	 0.193119049072266 
728	 0.193223461508751 
729	 0.19336211681366 
730	 0.193514853715897 
731	 0.193649187684059 
732	 0.1937355697155 
733	 0.193830788135529 
734	 0.193908587098122 
735	 0.193978771567345 
736	 0.194119423627853 
737	 0.194302082061768 
738	 0.194442629814148 
739	 0.194480985403061 
740	 0.194451555609703 
741	 0.194481715559959 
742	 0.194556668400764 
743	 0.194610565900803 
744	 0.194702953100204 
745	 0.194780051708221 
746	 0.194835305213928 
747	 0.19490173459053 
748	 0.19492618739605 
749	 0.194905698299408 
750	 0.194884985685349 
751	 0.194964870810509 
752	 0.195020407438278 
753	 0.195072129368782 
754	 0.195129081606865 
755	 0.195049315690994 
756	 0.195037811994553 
757	 0.195102646946907 
758	 0.195157125592232 
759	 0.195115610957146 
760	 0.195069566369057 
761	 0.195039168000221 
762	 0.194989070296288 
763	 0.194979548454285 
764	 0.194963112473488 
765	 0.194911062717438 
766	 0.194838792085648 
767	 0.194809213280678 
768	 0.19478864967823 
769	 0.194751188158989 
770	 0.194744184613228 
771	 0.194698259234428 
772	 0.194627821445465 
773	 0.194565802812576 
774	 0.194500163197517 
775	 0.194401249289513 
776	 0.194303691387177 
777	 0.194260627031326 
778	 0.1941988915205 
779	 0.194130465388298 
780	 0.194052472710609 
781	 0.193944081664085 
782	 0.193798378109932 
783	 0.193700224161148 
784	 0.193673923611641 
785	 0.193636879324913 
786	 0.19351065158844 
787	 0.193386286497116 
788	 0.193332433700562 
789	 0.193266600370407 
790	 0.193131670355797 
791	 0.192968904972076 
792	 0.192847177386284 
793	 0.192785993218422 
794	 0.192727074027061 
795	 0.192631646990776 
796	 0.192487433552742 
797	 0.192336171865463 
798	 0.192251428961754 
799	 0.192194327712059 
800	 0.192052274942398 
801	 0.191933795809746 
802	 0.191803053021431 
803	 0.191672384738922 
804	 0.191621199250221 
805	 0.191469267010689 
806	 0.191279858350754 
807	 0.191151067614555 
808	 0.191154271364212 
809	 0.191039636731148 
810	 0.190856575965881 
811	 0.190707743167877 
812	 0.190609604120255 
813	 0.190479665994644 
814	 0.19032284617424 
815	 0.19019290804863 
816	 0.190209150314331 
817	 0.190079689025879 
818	 0.18988710641861 
819	 0.189833998680115 
820	 0.189654245972633 
821	 0.189516022801399 
822	 0.189455628395081 
823	 0.189395621418953 
824	 0.189280107617378 
825	 0.189173519611359 
826	 0.189061969518661 
827	 0.188864320516586 
828	 0.188706904649734 
829	 0.188609287142754 
830	 0.188546508550644 
831	 0.188463121652603 
832	 0.188378468155861 
833	 0.188293159008026 
834	 0.188198089599609 
835	 0.188074380159378 
836	 0.187937796115875 
837	 0.187785431742668 
838	 0.187650516629219 
839	 0.187647789716721 
840	 0.187593057751656 
841	 0.187490105628967 
842	 0.187377795577049 
843	 0.187228262424469 
844	 0.187089890241623 
845	 0.186978980898857 
846	 0.186891585588455 
847	 0.186804682016373 
848	 0.186694011092186 
849	 0.186613827943802 
850	 0.186601921916008 
851	 0.186506986618042 
852	 0.186364397406578 
853	 0.186232656240463 
854	 0.186173349618912 
855	 0.18622624874115 
856	 0.18620477616787 
857	 0.186072885990143 
858	 0.185905173420906 
859	 0.185774460434914 
860	 0.185760021209717 
861	 0.1857580691576 
862	 0.185608118772507 
863	 0.185584142804146 
864	 0.185494959354401 
865	 0.185351610183716 
866	 0.185307323932648 
867	 0.18520151078701 
868	 0.185139730572701 
869	 0.185128316283226 
870	 0.185083150863647 
871	 0.18504935503006 
872	 0.184984430670738 
873	 0.18489445745945 
874	 0.184832841157913 
875	 0.184813767671585 
876	 0.184754401445389 
877	 0.184671372175217 
878	 0.184671878814697 
879	 0.184726193547249 
880	 0.184686839580536 
881	 0.18458716571331 
882	 0.184614643454552 
883	 0.184574320912361 
884	 0.184520587325096 
885	 0.184497997164726 
886	 0.18450129032135 
887	 0.18446458876133 
888	 0.184436440467834 
889	 0.184413328766823 
890	 0.184340730309486 
891	 0.1843121945858 
892	 0.184288561344147 
893	 0.184285089373589 
894	 0.184361383318901 
895	 0.184365898370743 
896	 0.184405520558357 
897	 0.184460207819939 
898	 0.184394374489784 
899	 0.184324696660042 
900	 0.184268176555634 
901	 0.184229165315628 
902	 0.184212148189545 
903	 0.184248208999634 
904	 0.184313654899597 
905	 0.184375569224358 
906	 0.184403449296951 
907	 0.184394463896751 
908	 0.184320315718651 
909	 0.184239849448204 
910	 0.184251174330711 
911	 0.18432529270649 
912	 0.184389621019363 
913	 0.184403404593468 
914	 0.184379175305367 
915	 0.18444000184536 
916	 0.184541195631027 
917	 0.18462660908699 
918	 0.184653997421265 
919	 0.184643313288689 
920	 0.18456195294857 
921	 0.18454498052597 
922	 0.184691354632378 
923	 0.184735581278801 
924	 0.18476890027523 
925	 0.184837892651558 
926	 0.184924766421318 
927	 0.184876427054405 
928	 0.184957876801491 
929	 0.185074970126152 
930	 0.18511651456356 
931	 0.185180619359016 
932	 0.185197398066521 
933	 0.18518178164959 
934	 0.185182884335518 
935	 0.185259506106377 
936	 0.185357421636581 
937	 0.18545126914978 
938	 0.18551704287529 
939	 0.185536965727806 
940	 0.18558657169342 
941	 0.185649693012238 
942	 0.185691297054291 
943	 0.185690402984619 
944	 0.185734987258911 
945	 0.185785040259361 
946	 0.185854867100716 
947	 0.185969173908234 
948	 0.18599146604538 
949	 0.18597474694252 
950	 0.186002761125565 
951	 0.186095207929611 
952	 0.186027556657791 
953	 0.186032444238663 
954	 0.186083629727364 
955	 0.186092719435692 
956	 0.186051890254021 
957	 0.186107218265533 
958	 0.186151847243309 
959	 0.186124816536903 
960	 0.186129912734032 
961	 0.18618232011795 
962	 0.186299815773964 
963	 0.186405166983604 
964	 0.18638277053833 
965	 0.186449438333511 
966	 0.186564326286316 
967	 0.18666236102581 
968	 0.186723366379738 
969	 0.18691611289978 
970	 0.186973720788956 
971	 0.186976090073586 
972	 0.187068372964859 
973	 0.187152251601219 
974	 0.187204942107201 
975	 0.187199875712395 
976	 0.187189429998398 
977	 0.187320917844772 
978	 0.187583789229393 
979	 0.187755450606346 
980	 0.187757879495621 
981	 0.187709450721741 
982	 0.18780805170536 
983	 0.187828779220581 
984	 0.187844887375832 
985	 0.18797655403614 
986	 0.187867358326912 
987	 0.187826886773109 
988	 0.187892973423004 
989	 0.188000455498695 
990	 0.188074335455894 
991	 0.188096478581429 
992	 0.188081458210945 
993	 0.188052356243134 
994	 0.188039988279343 
995	 0.188146322965622 
996	 0.188130050897598 
997	 0.188068881630898 
998	 0.188148334622383 
999	 0.188265398144722 
1000	 0.188145905733109 
1001	 0.184192165732384 
1002	 0.184229761362076 
1003	 0.184237033128738 
1004	 0.184196412563324 
1005	 0.18416665494442 
1006	 0.184111416339874 
1007	 0.18412509560585 
1008	 0.184144452214241 
1009	 0.184143647551537 
1010	 0.184184342622757 
1011	 0.184146016836166 
1012	 0.184000447392464 
1013	 0.18396033346653 
1014	 0.183917418122292 
1015	 0.183873042464256 
1016	 0.183832243084908 
1017	 0.183944314718246 
1018	 0.18397219479084 
1019	 0.183993577957153 
1020	 0.184006676077843 
1021	 0.183934509754181 
1022	 0.183914214372635 
1023	 0.183916509151459 
1024	 0.18388344347477 
1025	 0.18389467895031 
1026	 0.183859825134277 
1027	 0.183749035000801 
1028	 0.183658942580223 
1029	 0.183551147580147 
1030	 0.183518409729004 
1031	 0.183464780449867 
1032	 0.183402344584465 
1033	 0.183421537280083 
1034	 0.183468788862228 
1035	 0.183422923088074 
1036	 0.183359697461128 
1037	 0.183254271745682 
1038	 0.183078348636627 
1039	 0.183000102639198 
1040	 0.183008953928947 
1041	 0.182933628559113 
1042	 0.182889878749847 
1043	 0.182806327939034 
1044	 0.182659476995468 
1045	 0.18249237537384 
1046	 0.182364031672478 
1047	 0.182255879044533 
1048	 0.182174235582352 
1049	 0.182116150856018 
1050	 0.182137936353683 
1051	 0.182153388857841 
1052	 0.182141825556755 
1053	 0.182132065296173 
1054	 0.182062163949013 
1055	 0.181920662522316 
1056	 0.181808561086655 
1057	 0.181657806038857 
1058	 0.181538909673691 
1059	 0.18150620162487 
1060	 0.181503772735596 
1061	 0.181500852108002 
1062	 0.181482285261154 
1063	 0.181378647685051 
1064	 0.181179597973824 
1065	 0.181015327572823 
1066	 0.180872216820717 
1067	 0.18074057996273 
1068	 0.180684253573418 
1069	 0.180592060089111 
1070	 0.180494159460068 
1071	 0.180391550064087 
1072	 0.180288970470428 
1073	 0.180140048265457 
1074	 0.180050238966942 
1075	 0.180000111460686 
1076	 0.179947793483734 
1077	 0.179929301142693 
1078	 0.179853841662407 
1079	 0.179743319749832 
1080	 0.179651871323586 
1081	 0.179542019963264 
1082	 0.179451748728752 
1083	 0.179374843835831 
1084	 0.179280638694763 
1085	 0.17923030257225 
1086	 0.179185599088669 
1087	 0.17917113006115 
1088	 0.179147690534592 
1089	 0.179108649492264 
1090	 0.178977742791176 
1091	 0.178853288292885 
1092	 0.178775027394295 
1093	 0.178691759705544 
1094	 0.178704351186752 
1095	 0.178684771060944 
1096	 0.178530037403107 
1097	 0.178408354520798 
1098	 0.178300559520721 
1099	 0.178175792098045 
1100	 0.178144589066505 
1101	 0.178103774785995 
1102	 0.178085088729858 
1103	 0.178021267056465 
1104	 0.177961185574532 
1105	 0.177833646535873 
1106	 0.177709206938744 
1107	 0.177602648735046 
1108	 0.177540376782417 
1109	 0.17759220302105 
1110	 0.177638337016106 
1111	 0.177622497081757 
1112	 0.177583664655685 
1113	 0.177496030926704 
1114	 0.177396401762962 
1115	 0.177384614944458 
1116	 0.177307978272438 
1117	 0.177214384078979 
1118	 0.177101731300354 
1119	 0.177040353417397 
1120	 0.176886647939682 
1121	 0.176804736256599 
1122	 0.176789626479149 
1123	 0.176677688956261 
1124	 0.17659193277359 
1125	 0.176529407501221 
1126	 0.176479533314705 
1127	 0.176484867930412 
1128	 0.176476866006851 
1129	 0.176420852541924 
1130	 0.176296636462212 
1131	 0.1761624366045 
1132	 0.176054909825325 
1133	 0.175939872860909 
1134	 0.175866916775703 
1135	 0.17585314810276 
1136	 0.175806075334549 
1137	 0.175712987780571 
1138	 0.175683602690697 
1139	 0.175583451986313 
1140	 0.175483375787735 
1141	 0.17540930211544 
1142	 0.175271511077881 
1143	 0.175169333815575 
1144	 0.175030335783958 
1145	 0.17492051422596 
1146	 0.174901381134987 
1147	 0.174840062856674 
1148	 0.174780488014221 
1149	 0.174709543585777 
1150	 0.174602940678596 
1151	 0.174505695700645 
1152	 0.174401149153709 
1153	 0.174324214458466 
1154	 0.174270018935204 
1155	 0.174189031124115 
1156	 0.174114376306534 
1157	 0.174077332019806 
1158	 0.174013406038284 
1159	 0.173950761556625 
1160	 0.173892199993134 
1161	 0.17381352186203 
1162	 0.173730105161667 
1163	 0.173629581928253 
1164	 0.173545882105827 
1165	 0.173488810658455 
1166	 0.173427239060402 
1167	 0.173380345106125 
1168	 0.173333302140236 
1169	 0.173304632306099 
1170	 0.17322264611721 
1171	 0.173126995563507 
1172	 0.173039779067039 
1173	 0.172955587506294 
1174	 0.172888278961182 
1175	 0.172836646437645 
1176	 0.172785371541977 
1177	 0.172716408967972 
1178	 0.172635644674301 
1179	 0.172581866383553 
1180	 0.172548234462738 
1181	 0.172487303614616 
1182	 0.172418192028999 
1183	 0.172367379069328 
1184	 0.172313466668129 
1185	 0.172257497906685 
1186	 0.172245129942894 
1187	 0.172182008624077 
1188	 0.172080680727959 
1189	 0.171985313296318 
1190	 0.171913459897041 
1191	 0.171837374567986 
1192	 0.171781048178673 
1193	 0.171727135777473 
1194	 0.171679198741913 
1195	 0.171622782945633 
1196	 0.171566963195801 
1197	 0.171521231532097 
1198	 0.171440258622169 
1199	 0.171345084905624 
1200	 0.171240195631981 
1201	 0.171149864792824 
1202	 0.171079337596893 
1203	 0.171017751097679 
1204	 0.170956432819366 
1205	 0.170938581228256 
1206	 0.170872539281845 
1207	 0.1707773655653 
1208	 0.170690506696701 
1209	 0.170595109462738 
1210	 0.170519530773163 
1211	 0.170457929372787 
1212	 0.170404270291328 
1213	 0.170350521802902 
1214	 0.170264929533005 
1215	 0.170179188251495 
1216	 0.17010386288166 
1217	 0.170015245676041 
1218	 0.16989740729332 
1219	 0.169796541333199 
1220	 0.16968160867691 
1221	 0.16960534453392 
1222	 0.169559329748154 
1223	 0.169503003358841 
1224	 0.169473201036453 
1225	 0.169411197304726 
1226	 0.169334605336189 
1227	 0.169242233037949 
1228	 0.169136226177216 
1229	 0.16904354095459 
1230	 0.168951317667961 
1231	 0.168884932994843 
1232	 0.168857425451279 
1233	 0.16879615187645 
1234	 0.168733552098274 
1235	 0.168691158294678 
1236	 0.168586358428001 
1237	 0.168484658002853 
1238	 0.168387040495872 
1239	 0.168248176574707 
1240	 0.168155834078789 
1241	 0.168106988072395 
1242	 0.168033376336098 
1243	 0.167983591556549 
1244	 0.167900785803795 
1245	 0.167777299880981 
1246	 0.167684271931648 
1247	 0.167595535516739 
1248	 0.167497336864471 
1249	 0.167410925030708 
1250	 0.167316362261772 
1251	 0.167234167456627 
1252	 0.167165085673332 
1253	 0.167128369212151 
1254	 0.167110830545425 
1255	 0.167014047503471 
1256	 0.166921600699425 
1257	 0.166838958859444 
1258	 0.166718661785126 
1259	 0.16665618121624 
1260	 0.166669905185699 
1261	 0.166611701250076 
1262	 0.166533946990967 
1263	 0.166482195258141 
1264	 0.166412204504013 
1265	 0.166335180401802 
1266	 0.166269898414612 
1267	 0.16620971262455 
1268	 0.166150689125061 
1269	 0.16607666015625 
1270	 0.166004434227943 
1271	 0.165935784578323 
1272	 0.165853843092918 
1273	 0.16576212644577 
1274	 0.165695488452911 
1275	 0.165644347667694 
1276	 0.165590777993202 
1277	 0.16551285982132 
1278	 0.165420204401016 
1279	 0.165346071124077 
1280	 0.165287673473358 
1281	 0.165248081088066 
1282	 0.165165141224861 
1283	 0.165089979767799 
1284	 0.164991021156311 
1285	 0.164815217256546 
1286	 0.164711222052574 
1287	 0.164674326777458 
1288	 0.164580747485161 
1289	 0.164465010166168 
1290	 0.164368405938148 
1291	 0.164259523153305 
1292	 0.16413639485836 
1293	 0.16407173871994 
1294	 0.164009898900986 
1295	 0.163862496614456 
1296	 0.163747474551201 
1297	 0.163623407483101 
1298	 0.163438096642494 
1299	 0.163330316543579 
1300	 0.163232669234276 
1301	 0.163141757249832 
1302	 0.16312438249588 
1303	 0.163043171167374 
1304	 0.162945866584778 
1305	 0.162857875227928 
1306	 0.162724167108536 
1307	 0.162634551525116 
1308	 0.162599295377731 
1309	 0.162532731890678 
1310	 0.162451341748238 
1311	 0.162392809987068 
1312	 0.162353605031967 
1313	 0.162279725074768 
1314	 0.162192299962044 
1315	 0.162118479609489 
1316	 0.162012740969658 
1317	 0.161944836378098 
1318	 0.161921009421349 
1319	 0.161876648664474 
1320	 0.16183640062809 
1321	 0.161805152893066 
1322	 0.161717191338539 
1323	 0.161670207977295 
1324	 0.161634370684624 
1325	 0.161537915468216 
1326	 0.161495953798294 
1327	 0.161501586437225 
1328	 0.161455720663071 
1329	 0.161402776837349 
1330	 0.161357372999191 
1331	 0.161277487874031 
1332	 0.161238476634026 
1333	 0.161235675215721 
1334	 0.161210775375366 
1335	 0.161185294389725 
1336	 0.161161050200462 
1337	 0.161121428012848 
1338	 0.161105901002884 
1339	 0.161140993237495 
1340	 0.161119490861893 
1341	 0.161088734865189 
1342	 0.161019146442413 
1343	 0.160947352647781 
1344	 0.160895675420761 
1345	 0.160863250494003 
1346	 0.160862848162651 
1347	 0.160818085074425 
1348	 0.160761475563049 
1349	 0.160743892192841 
1350	 0.160685688257217 
1351	 0.160632789134979 
1352	 0.160595431923866 
1353	 0.160531789064407 
1354	 0.160432144999504 
1355	 0.160374030470848 
1356	 0.160340487957001 
1357	 0.160273715853691 
1358	 0.160200580954552 
1359	 0.16012667119503 
1360	 0.160027891397476 
1361	 0.159951418638229 
1362	 0.159892484545708 
1363	 0.159835621714592 
1364	 0.159802660346031 
1365	 0.159724727272987 
1366	 0.159627139568329 
1367	 0.159532845020294 
1368	 0.159406423568726 
1369	 0.159300699830055 
1370	 0.159207850694656 
1371	 0.159103602170944 
1372	 0.158997282385826 
1373	 0.158873051404953 
1374	 0.158735990524292 
1375	 0.158620923757553 
1376	 0.158522233366966 
1377	 0.158417031168938 
1378	 0.158337786793709 
1379	 0.158254072070122 
1380	 0.158129349350929 
1381	 0.15798231959343 
1382	 0.157811015844345 
1383	 0.157615408301353 
1384	 0.157397389411926 
1385	 0.157181784510612 
1386	 0.156897321343422 
1387	 0.156593203544617 
1388	 0.156199067831039 
1389	 0.155756130814552 
1390	 0.15523487329483 
1391	 0.154644727706909 
1392	 0.153980985283852 
1393	 0.153236150741577 
1394	 0.152428030967712 
1395	 0.151527613401413 
1396	 0.150605797767639 
1397	 0.14957882463932 
1398	 0.148604586720467 
1399	 0.147620424628258 
1400	 0.146641075611115 
1401	 0.145685404539108 
1402	 0.144796445965767 
1403	 0.143947347998619 
1404	 0.143159657716751 
1405	 0.14248338341713 
1406	 0.14184133708477 
1407	 0.141237556934357 
1408	 0.140719011425972 
1409	 0.140275999903679 
1410	 0.13993638753891 
1411	 0.139740183949471 
1412	 0.139647200703621 
1413	 0.139740973711014 
1414	 0.139978870749474 
1415	 0.140350490808487 
1416	 0.140905454754829 
1417	 0.141537249088287 
1418	 0.142326474189758 
1419	 0.143125891685486 
1420	 0.144073620438576 
1421	 0.144928961992264 
1422	 0.145832642912865 
1423	 0.146630138158798 
1424	 0.147377669811249 
1425	 0.148081719875336 
1426	 0.148742392659187 
1427	 0.14931383728981 
1428	 0.14982034265995 
1429	 0.150285348296165 
1430	 0.150652036070824 
1431	 0.151008412241936 
1432	 0.151354640722275 
1433	 0.151641890406609 
1434	 0.151865571737289 
1435	 0.152076616883278 
1436	 0.152261823415756 
1437	 0.15239192545414 
1438	 0.152521401643753 
1439	 0.152633726596832 
1440	 0.152714863419533 
1441	 0.152801334857941 
1442	 0.152867674827576 
1443	 0.152908176183701 
1444	 0.152933850884438 
1445	 0.152925372123718 
1446	 0.152930796146393 
1447	 0.152924776077271 
1448	 0.152931287884712 
1449	 0.152945563197136 
1450	 0.152947977185249 
1451	 0.15295298397541 
1452	 0.152928620576859 
1453	 0.152891770005226 
1454	 0.1528609842062 
1455	 0.152806371450424 
1456	 0.152762487530708 
1457	 0.152724057435989 
1458	 0.15268012881279 
1459	 0.152636393904686 
1460	 0.1525958776474 
1461	 0.152556493878365 
1462	 0.152518332004547 
1463	 0.152478337287903 
1464	 0.152434974908829 
1465	 0.152397096157074 
1466	 0.152350977063179 
1467	 0.152288138866425 
1468	 0.152243658900261 
1469	 0.152212545275688 
1470	 0.15217436850071 
1471	 0.152140930294991 
1472	 0.152106046676636 
1473	 0.152067586779594 
1474	 0.152019307017326 
1475	 0.151960670948029 
1476	 0.15191812813282 
1477	 0.151870831847191 
1478	 0.151836767792702 
1479	 0.151812955737114 
1480	 0.15177384018898 
1481	 0.151735067367554 
1482	 0.151694267988205 
1483	 0.151647046208382 
1484	 0.151623636484146 
1485	 0.151615917682648 
1486	 0.151583671569824 
1487	 0.151533499360085 
1488	 0.151489034295082 
1489	 0.151423245668411 
1490	 0.151373684406281 
1491	 0.151372075080872 
1492	 0.151347249746323 
1493	 0.151311174035072 
1494	 0.151275679469109 
1495	 0.151223286986351 
1496	 0.15113876760006 
1497	 0.15109047293663 
1498	 0.151051312685013 
1499	 0.15100522339344 
1500	 0.1509730219841 
1501	 0.150934621691704 
1502	 0.15088115632534 
1503	 0.150846123695374 
1504	 0.150836884975433 
1505	 0.150790601968765 
1506	 0.150726735591888 
1507	 0.15068244934082 
1508	 0.150617867708206 
1509	 0.150571972131729 
1510	 0.150568231940269 
1511	 0.150520592927933 
1512	 0.150444954633713 
1513	 0.150393947958946 
1514	 0.150323390960693 
1515	 0.150278568267822 
1516	 0.150275081396103 
1517	 0.150236994028091 
1518	 0.15018230676651 
1519	 0.150151163339615 
1520	 0.15012438595295 
1521	 0.150085985660553 
1522	 0.150055006146431 
1523	 0.150020554661751 
1524	 0.149962395429611 
1525	 0.149927005171776 
1526	 0.149925634264946 
1527	 0.149898335337639 
1528	 0.149855777621269 
1529	 0.149814620614052 
1530	 0.149753361940384 
1531	 0.149719268083572 
1532	 0.149689167737961 
1533	 0.149663954973221 
1534	 0.149615585803986 
1535	 0.149549663066864 
1536	 0.149491205811501 
1537	 0.149436756968498 
1538	 0.149387702345848 
1539	 0.149330526590347 
1540	 0.149250328540802 
1541	 0.149197831749916 
1542	 0.149166882038116 
1543	 0.149103030562401 
1544	 0.149049162864685 
1545	 0.149005562067032 
1546	 0.148942887783051 
1547	 0.148898661136627 
1548	 0.148879766464233 
1549	 0.1488376557827 
1550	 0.148799583315849 
1551	 0.148782789707184 
1552	 0.148737758398056 
1553	 0.14869150519371 
1554	 0.148656979203224 
1555	 0.148621752858162 
1556	 0.148593872785568 
1557	 0.148544639348984 
1558	 0.148479029536247 
1559	 0.148447394371033 
1560	 0.148435711860657 
1561	 0.148389667272568 
1562	 0.148338809609413 
1563	 0.148309677839279 
1564	 0.14826662838459 
1565	 0.148245170712471 
1566	 0.148246541619301 
1567	 0.148202583193779 
1568	 0.14816714823246 
1569	 0.148122891783714 
1570	 0.148074328899384 
1571	 0.14802710711956 
1572	 0.147967010736465 
1573	 0.147874444723129 
1574	 0.147823303937912 
1575	 0.147792220115662 
1576	 0.147757783532143 
1577	 0.147759780287743 
1578	 0.147696852684021 
1579	 0.147572621703148 
1580	 0.147517219185829 
1581	 0.147476121783257 
1582	 0.147430062294006 
1583	 0.147424221038818 
1584	 0.147379815578461 
1585	 0.147277519106865 
1586	 0.147235378623009 
1587	 0.147237554192543 
1588	 0.147220492362976 
1589	 0.147220551967621 
1590	 0.147193193435669 
1591	 0.147142082452774 
1592	 0.147092595696449 
1593	 0.147031158208847 
1594	 0.146984726190567 
1595	 0.14694932103157 
1596	 0.146906301379204 
1597	 0.146869093179703 
1598	 0.146814256906509 
1599	 0.146731659770012 
1600	 0.146676287055016 
1601	 0.146632492542267 
1602	 0.146585792303085 
1603	 0.146546915173531 
1604	 0.146509289741516 
1605	 0.146467462182045 
1606	 0.14643369615078 
1607	 0.146423190832138 
1608	 0.14637690782547 
1609	 0.146296814084053 
1610	 0.146261364221573 
1611	 0.146243467926979 
1612	 0.146203503012657 
1613	 0.14618244767189 
1614	 0.146141320466995 
1615	 0.146050497889519 
1616	 0.146010354161263 
1617	 0.14601394534111 
1618	 0.14597450196743 
1619	 0.145929202437401 
1620	 0.145888015627861 
1621	 0.145818844437599 
1622	 0.145777881145477 
1623	 0.145765468478203 
1624	 0.145722076296806 
1625	 0.145662352442741 
1626	 0.145636692643166 
1627	 0.145630091428757 
1628	 0.145586848258972 
1629	 0.145549491047859 
1630	 0.145488008856773 
1631	 0.145362973213196 
1632	 0.145314753055573 
1633	 0.145318567752838 
1634	 0.14527902007103 
1635	 0.145253255963326 
1636	 0.145206689834595 
1637	 0.145105019211769 
1638	 0.145066484808922 
1639	 0.145076289772987 
1640	 0.145038485527039 
1641	 0.14500293135643 
1642	 0.144961625337601 
1643	 0.144887909293175 
1644	 0.144838660955429 
1645	 0.144793033599854 
1646	 0.144781827926636 
1647	 0.144789427518845 
1648	 0.144770815968513 
1649	 0.14479061961174 
1650	 0.144769206643105 
1651	 0.144704386591911 
1652	 0.144664615392685 
1653	 0.144617944955826 
1654	 0.144570052623749 
1655	 0.144519314169884 
1656	 0.144491195678711 
1657	 0.14448507130146 
1658	 0.144454151391983 
1659	 0.144432172179222 
1660	 0.144385203719139 
1661	 0.144292995333672 
1662	 0.14423793554306 
1663	 0.144199058413506 
1664	 0.144140169024467 
1665	 0.144090861082077 
1666	 0.144034862518311 
1667	 0.143967881798744 
1668	 0.143932700157166 
1669	 0.143899828195572 
1670	 0.14386685192585 
1671	 0.14384301006794 
1672	 0.143846124410629 
1673	 0.143849268555641 
1674	 0.143842086195946 
1675	 0.14383864402771 
1676	 0.143761917948723 
1677	 0.143671840429306 
1678	 0.143656209111214 
1679	 0.143626853823662 
1680	 0.14362521469593 
1681	 0.143644988536835 
1682	 0.143579497933388 
1683	 0.143519505858421 
1684	 0.143478617072105 
1685	 0.143429189920425 
1686	 0.143420234322548 
1687	 0.143422335386276 
1688	 0.143412992358208 
1689	 0.143376976251602 
1690	 0.143331006169319 
1691	 0.143288269639015 
1692	 0.143221229314804 
1693	 0.143193244934082 
1694	 0.143192976713181 
1695	 0.143178179860115 
1696	 0.143195703625679 
1697	 0.14322866499424 
1698	 0.143223345279694 
1699	 0.143162712454796 
1700	 0.143103644251823 
1701	 0.14304555952549 
1702	 0.142987549304962 
1703	 0.142989754676819 
1704	 0.142994925379753 
1705	 0.142961725592613 
1706	 0.142910316586494 
1707	 0.142852619290352 
1708	 0.142801076173782 
1709	 0.142767250537872 
1710	 0.142761290073395 
1711	 0.142776876688004 
1712	 0.14281402528286 
1713	 0.142826110124588 
1714	 0.142814576625824 
1715	 0.142799213528633 
1716	 0.142709642648697 
1717	 0.1425990909338 
1718	 0.142552301287651 
1719	 0.142503544688225 
1720	 0.142459467053413 
1721	 0.14244669675827 
1722	 0.142398372292519 
1723	 0.142353653907776 
1724	 0.142356336116791 
1725	 0.142356857657433 
1726	 0.142348363995552 
1727	 0.142287760972977 
1728	 0.142156675457954 
1729	 0.142088606953621 
1730	 0.142014622688293 
1731	 0.141986027359962 
1732	 0.142011538147926 
1733	 0.142011642456055 
1734	 0.142041102051735 
1735	 0.142012789845467 
1736	 0.141956120729446 
1737	 0.141867697238922 
1738	 0.141787379980087 
1739	 0.141747295856476 
1740	 0.141714170575142 
1741	 0.14170429110527 
1742	 0.141708835959435 
1743	 0.141671568155289 
1744	 0.141622960567474 
1745	 0.141578957438469 
1746	 0.141488194465637 
1747	 0.141431570053101 
1748	 0.14143118262291 
1749	 0.141372427344322 
1750	 0.141326531767845 
1751	 0.141315028071404 
1752	 0.141258507966995 
1753	 0.141241267323494 
1754	 0.141251668334007 
1755	 0.1412083953619 
1756	 0.14113686978817 
1757	 0.141074612736702 
1758	 0.141026765108109 
1759	 0.140975430607796 
1760	 0.140953898429871 
1761	 0.140953958034515 
1762	 0.140935704112053 
1763	 0.140933722257614 
1764	 0.140941098332405 
1765	 0.140941739082336 
1766	 0.140936210751534 
1767	 0.140895038843155 
1768	 0.140828460454941 
1769	 0.140753522515297 
1770	 0.140681579709053 
1771	 0.140651121735573 
1772	 0.140664041042328 
1773	 0.140658482909203 
1774	 0.140625655651093 
1775	 0.140600651502609 
1776	 0.140579715371132 
1777	 0.140558704733849 
1778	 0.140588685870171 
1779	 0.140595749020576 
1780	 0.140581995248795 
1781	 0.140614077448845 
1782	 0.140630125999451 
1783	 0.140580296516418 
1784	 0.140558525919914 
1785	 0.140536487102509 
1786	 0.140454456210136 
1787	 0.140403211116791 
1788	 0.140376806259155 
1789	 0.140333279967308 
1790	 0.140312299132347 
1791	 0.140302553772926 
1792	 0.140252634882927 
1793	 0.140218824148178 
1794	 0.14021261036396 
1795	 0.140186950564384 
1796	 0.140189036726952 
1797	 0.140168130397797 
1798	 0.140123873949051 
1799	 0.140106007456779 
1800	 0.140072554349899 
1801	 0.140052437782288 
1802	 0.140020653605461 
1803	 0.140003696084023 
1804	 0.140015617012978 
1805	 0.140000805258751 
1806	 0.14002650976181 
1807	 0.140003979206085 
1808	 0.139919459819794 
1809	 0.13989382982254 
1810	 0.139850407838821 
1811	 0.139844864606857 
1812	 0.139817774295807 
1813	 0.139765575528145 
1814	 0.139724045991898 
1815	 0.139701411128044 
1816	 0.139696002006531 
1817	 0.139695912599564 
1818	 0.139680922031403 
1819	 0.139650508761406 
1820	 0.139657840132713 
1821	 0.139641612768173 
1822	 0.139625251293182 
1823	 0.139647379517555 
1824	 0.139623522758484 
1825	 0.139581397175789 
1826	 0.13959239423275 
1827	 0.139596462249756 
1828	 0.13958828151226 
1829	 0.139712020754814 
1830	 0.13979783654213 
1831	 0.144759833812714 
1832	 0.144742593169212 
1833	 0.144718259572983 
1834	 0.144672647118568 
1835	 0.144663229584694 
1836	 0.144686162471771 
1837	 0.144656658172607 
1838	 0.144618958234787 
1839	 0.14460925757885 
1840	 0.144465178251266 
1841	 0.144407212734222 
1842	 0.144435673952103 
1843	 0.144362956285477 
1844	 0.144328564405441 
1845	 0.144343599677086 
1846	 0.144323334097862 
1847	 0.144254937767982 
1848	 0.144244641065598 
1849	 0.144278630614281 
1850	 0.144231528043747 
1851	 0.144161984324455 
1852	 0.144120633602142 
1853	 0.144030511379242 
1854	 0.144000247120857 
1855	 0.143952310085297 
1856	 0.143875598907471 
1857	 0.143867835402489 
1858	 0.14393338561058 
1859	 0.143896281719208 
1860	 0.143881127238274 
1861	 0.143929168581963 
1862	 0.143826231360435 
1863	 0.143712162971497 
1864	 0.143619373440742 
1865	 0.1434655636549 
1866	 0.143364131450653 
1867	 0.143254324793816 
1868	 0.143203631043434 
1869	 0.143270805478096 
1870	 0.143336310982704 
1871	 0.143297493457794 
1872	 0.143263414502144 
1873	 0.143169701099396 
1874	 0.143023207783699 
1875	 0.14295594394207 
1876	 0.142901495099068 
1877	 0.142815127968788 
1878	 0.142702624201775 
1879	 0.142604976892471 
1880	 0.142458990216255 
1881	 0.142268940806389 
1882	 0.142084062099457 
1883	 0.141832292079926 
1884	 0.141552463173866 
1885	 0.141338899731636 
1886	 0.141090586781502 
1887	 0.140821412205696 
1888	 0.140588402748108 
1889	 0.14039945602417 
1890	 0.140154808759689 
1891	 0.139900013804436 
1892	 0.139727219939232 
1893	 0.139499694108963 
1894	 0.139158755540848 
1895	 0.13884249329567 
1896	 0.138503864407539 
1897	 0.138088703155518 
1898	 0.1376883238554 
1899	 0.137362658977509 
1900	 0.13708721101284 
1901	 0.136813372373581 
1902	 0.136480078101158 
1903	 0.136249229311943 
1904	 0.136041715741158 
1905	 0.135780036449432 
1906	 0.135662466287613 
1907	 0.135507553815842 
1908	 0.135272353887558 
1909	 0.135048195719719 
1910	 0.134910106658936 
1911	 0.134777620434761 
1912	 0.134813159704208 
1913	 0.134834617376328 
1914	 0.134796768426895 
1915	 0.134825646877289 
1916	 0.134812921285629 
1917	 0.134728893637657 
1918	 0.134806945919991 
1919	 0.134931460022926 
1920	 0.134899035096169 
1921	 0.134990900754929 
1922	 0.135057657957077 
1923	 0.135164692997932 
1924	 0.135067194700241 
1925	 0.135013669729233 
1926	 0.134963825345039 
1927	 0.134902939200401 
1928	 0.134940728545189 
1929	 0.135023310780525 
1930	 0.135143339633942 
1931	 0.135201960802078 
1932	 0.135192900896072 
1933	 0.135199591517448 
1934	 0.135207995772362 
1935	 0.135164752602577 
1936	 0.135113120079041 
1937	 0.135094612836838 
1938	 0.135059699416161 
1939	 0.135040521621704 
1940	 0.135069996118546 
1941	 0.13512721657753 
1942	 0.135135352611542 
1943	 0.135114833712578 
1944	 0.135122120380402 
1945	 0.135110452771187 
1946	 0.13510350883007 
1947	 0.135093748569489 
1948	 0.135158598423004 
1949	 0.13522981107235 
1950	 0.135234072804451 
1951	 0.135229334235191 
1952	 0.135219275951385 
1953	 0.135186731815338 
1954	 0.135179474949837 
1955	 0.135247275233269 
1956	 0.135311275720596 
1957	 0.13532392680645 
1958	 0.13527624309063 
1959	 0.13528136909008 
1960	 0.135259509086609 
1961	 0.135281562805176 
1962	 0.135392725467682 
1963	 0.135395437479019 
1964	 0.135400652885437 
1965	 0.13544075191021 
1966	 0.135458365082741 
1967	 0.135526686906815 
1968	 0.13554210960865 
1969	 0.135525584220886 
1970	 0.13554647564888 
1971	 0.135551571846008 
1972	 0.135566517710686 
1973	 0.135646194219589 
1974	 0.135667324066162 
1975	 0.135606944561005 
1976	 0.13557556271553 
1977	 0.135617718100548 
1978	 0.135712563991547 
1979	 0.135790526866913 
1980	 0.135824501514435 
1981	 0.135852351784706 
1982	 0.135778442025185 
1983	 0.135806739330292 
1984	 0.13591668009758 
1985	 0.135986596345901 
1986	 0.136089518666267 
1987	 0.136143863201141 
1988	 0.136154696345329 
1989	 0.136105865240097 
1990	 0.13603475689888 
1991	 0.136030644178391 
1992	 0.136114299297333 
1993	 0.136230766773224 
1994	 0.136311218142509 
1995	 0.136425316333771 
1996	 0.136521115899086 
1997	 0.136597767472267 
1998	 0.136642709374428 
1999	 0.136689826846123 
2000	 0.136711403727531 
2001	 0.136707350611687 
2002	 0.136768266558647 
2003	 0.136891230940819 
2004	 0.137000858783722 
2005	 0.137115567922592 
2006	 0.137182280421257 
2007	 0.13725745677948 
2008	 0.137339055538177 
2009	 0.137423679232597 
2010	 0.137526705861092 
2011	 0.137559935450554 
2012	 0.137567058205605 
2013	 0.137525990605354 
2014	 0.13748899102211 
2015	 0.137536197900772 
2016	 0.137678876519203 
2017	 0.137839078903198 
2018	 0.137937813997269 
2019	 0.137977093458176 
2020	 0.138004124164581 
2021	 0.137937694787979 
2022	 0.137973859906197 
2023	 0.138048872351646 
2024	 0.138093277812004 
2025	 0.138156741857529 
2026	 0.138226360082626 
2027	 0.138266697525978 
2028	 0.138351142406464 
2029	 0.138492211699486 
2030	 0.138572558760643 
2031	 0.138611644506454 
2032	 0.138640329241753 
2033	 0.138669580221176 
2034	 0.138795360922813 
2035	 0.138856753706932 
2036	 0.138940989971161 
2037	 0.138974815607071 
2038	 0.138917878270149 
2039	 0.138913929462433 
2040	 0.138942807912827 
2041	 0.138951346278191 
2042	 0.13895882666111 
2043	 0.13898366689682 
2044	 0.138986393809319 
2045	 0.138996005058289 
2046	 0.139050632715225 
2047	 0.139098286628723 
2048	 0.139155387878418 
2049	 0.13923367857933 
2050	 0.139257743954659 
2051	 0.139273881912231 
2052	 0.139289915561676 
2053	 0.13926088809967 
2054	 0.139262139797211 
2055	 0.139289051294327 
2056	 0.139290064573288 
2057	 0.139264464378357 
2058	 0.139252439141273 
2059	 0.139294818043709 
2060	 0.139371752738953 
2061	 0.139444589614868 
2062	 0.139509722590446 
2063	 0.139568239450455 
2064	 0.139548003673553 
2065	 0.139514088630676 
2066	 0.139415010809898 
2067	 0.139412805438042 
2068	 0.139407008886337 
2069	 0.139444068074226 
2070	 0.139615848660469 
2071	 0.139666199684143 
2072	 0.139672458171844 
2073	 0.139654874801636 
2074	 0.139568656682968 
2075	 0.139531269669533 
2076	 0.139544442296028 
2077	 0.139519944787025 
2078	 0.139473646879196 
2079	 0.139455437660217 
2080	 0.139446645975113 
2081	 0.139422312378883 
2082	 0.139408051967621 
2083	 0.139438614249229 
2084	 0.13943512737751 
2085	 0.139426931738853 
2086	 0.139388844370842 
2087	 0.139334008097649 
2088	 0.139248728752136 
2089	 0.139083757996559 
2090	 0.138998463749886 
2091	 0.138909965753555 
2092	 0.138859122991562 
2093	 0.138886570930481 
2094	 0.13879819214344 
2095	 0.13864554464817 
2096	 0.138625487685204 
2097	 0.138579115271568 
2098	 0.138550952076912 
2099	 0.138469934463501 
2100	 0.138368561863899 
2101	 0.138299062848091 
2102	 0.138193055987358 
2103	 0.13812980055809 
2104	 0.138150379061699 
2105	 0.138115897774696 
2106	 0.138015106320381 
2107	 0.137999296188354 
2108	 0.137991100549698 
2109	 0.137938678264618 
2110	 0.137996569275856 
2111	 0.137991309165955 
2112	 0.137893557548523 
2113	 0.137886181473732 
2114	 0.137882620096207 
2115	 0.137880474328995 
2116	 0.137841016054153 
2117	 0.137805089354515 
2118	 0.137796968221664 
2119	 0.137746036052704 
2120	 0.137726977467537 
2121	 0.137808844447136 
2122	 0.13782899081707 
2123	 0.137762308120728 
2124	 0.13775609433651 
2125	 0.137796640396118 
2126	 0.137810885906219 
2127	 0.137791186571121 
2128	 0.137792840600014 
2129	 0.137726336717606 
2130	 0.137711361050606 
2131	 0.137831330299377 
2132	 0.137907817959785 
2133	 0.137909829616547 
2134	 0.137874096632004 
2135	 0.137868210673332 
2136	 0.137812927365303 
2137	 0.137749597430229 
2138	 0.137724727392197 
2139	 0.137685373425484 
2140	 0.137568265199661 
2141	 0.137494429945946 
2142	 0.137541010975838 
2143	 0.137453183531761 
2144	 0.137247756123543 
2145	 0.137076407670975 
2146	 0.137012869119644 
2147	 0.136900529265404 
2148	 0.136802226305008 
2149	 0.136593952775002 
2150	 0.136292546987534 
2151	 0.136051878333092 
2152	 0.135852918028831 
2153	 0.135778576135635 
2154	 0.135620608925819 
2155	 0.135448276996613 
2156	 0.135188117623329 
2157	 0.134891599416733 
2158	 0.134588867425919 
2159	 0.134213551878929 
2160	 0.13386495411396 
2161	 0.133512943983078 
2162	 0.133134186267853 
2163	 0.132710695266724 
2164	 0.132359176874161 
2165	 0.131997153162956 
2166	 0.131518691778183 
2167	 0.130914583802223 
2168	 0.130375817418098 
2169	 0.129821494221687 
2170	 0.129262268543243 
2171	 0.128764361143112 
2172	 0.128177091479301 
2173	 0.127540305256844 
2174	 0.126826032996178 
2175	 0.126110091805458 
2176	 0.125349789857864 
2177	 0.124591492116451 
2178	 0.123886652290821 
2179	 0.122988604009151 
2180	 0.121879830956459 
2181	 0.120938658714294 
2182	 0.1199791431427 
2183	 0.119019560515881 
2184	 0.118266642093658 
2185	 0.117311306297779 
2186	 0.116195693612099 
2187	 0.114949233829975 
2188	 0.113947793841362 
2189	 0.113091036677361 
2190	 0.112266190350056 
2191	 0.111567467451096 
2192	 0.110703386366367 
2193	 0.109771832823753 
2194	 0.109125919640064 
2195	 0.108489498496056 
2196	 0.107892006635666 
2197	 0.107362255454063 
2198	 0.107006177306175 
2199	 0.106728747487068 
2200	 0.106474325060844 
2201	 0.106384336948395 
2202	 0.106315739452839 
2203	 0.106183424592018 
2204	 0.106241062283516 
2205	 0.106546171009541 
2206	 0.106736443936825 
2207	 0.10690376162529 
2208	 0.1071932092309 
2209	 0.107518509030342 
2210	 0.107900127768517 
2211	 0.108423158526421 
2212	 0.108875259757042 
2213	 0.109419114887714 
2214	 0.109940528869629 
2215	 0.11041048169136 
2216	 0.111026830971241 
2217	 0.111633665859699 
2218	 0.112109497189522 
2219	 0.11257690936327 
2220	 0.113181903958321 
2221	 0.113771498203278 
2222	 0.1142767816782 
2223	 0.114764399826527 
2224	 0.11525147408247 
2225	 0.115756094455719 
2226	 0.116235755383968 
2227	 0.116674654185772 
2228	 0.117140710353851 
2229	 0.117585495114326 
2230	 0.117948926985264 
2231	 0.118297129869461 
2232	 0.118732862174511 
2233	 0.119065098464489 
2234	 0.119254134595394 
2235	 0.11948349326849 
2236	 0.119646802544594 
2237	 0.119864925742149 
2238	 0.120084516704082 
2239	 0.120373092591763 
2240	 0.120609603822231 
2241	 0.120911851525307 
2242	 0.12116814404726 
2243	 0.121360950171947 
2244	 0.121603891253471 
2245	 0.121887430548668 
2246	 0.122081764042377 
2247	 0.122212171554565 
2248	 0.122443027794361 
2249	 0.122610978782177 
2250	 0.122645810246468 
2251	 0.122816644608974 
2252	 0.12301316857338 
2253	 0.123151481151581 
2254	 0.123357571661472 
2255	 0.123766325414181 
2256	 0.123941317200661 
2257	 0.123969748616219 
2258	 0.124150834977627 
2259	 0.124281845986843 
2260	 0.124449633061886 
2261	 0.124797575175762 
2262	 0.124928452074528 
2263	 0.124864116311073 
2264	 0.125010281801224 
2265	 0.125196933746338 
2266	 0.125298380851746 
2267	 0.125505641102791 
2268	 0.125637292861938 
2269	 0.125656440854073 
2270	 0.125701949000359 
2271	 0.125739648938179 
2272	 0.125776886940002 
2273	 0.125980585813522 
2274	 0.126004666090012 
2275	 0.125943958759308 
2276	 0.12596470117569 
2277	 0.125791117548943 
2278	 0.12565965950489 
2279	 0.125941157341003 
2280	 0.126077950000763 
2281	 0.126024767756462 
2282	 0.126055270433426 
2283	 0.125951692461967 
2284	 0.125816255807877 
2285	 0.125720500946045 
2286	 0.125745013356209 
2287	 0.125687375664711 
2288	 0.125460624694824 
2289	 0.125390082597733 
2290	 0.1252151876688 
2291	 0.125133171677589 
2292	 0.125136956572533 
2293	 0.125043228268623 
2294	 0.12495519220829 
2295	 0.124804049730301 
2296	 0.12450484931469 
2297	 0.124321520328522 
2298	 0.124251551926136 
2299	 0.12407885491848 
2300	 0.123849846422672 
2301	 0.123581685125828 
2302	 0.123276114463806 
2303	 0.122922167181969 
2304	 0.122520469129086 
2305	 0.122206814587116 
2306	 0.121821850538254 
2307	 0.12149640917778 
2308	 0.121281340718269 
2309	 0.120966680347919 
2310	 0.120646819472313 
2311	 0.120366342365742 
2312	 0.120105423033237 
2313	 0.119769982993603 
2314	 0.119388088583946 
2315	 0.118966937065125 
2316	 0.118361942470074 
2317	 0.118032820522785 
2318	 0.117747746407986 
2319	 0.117397755384445 
2320	 0.117201797664165 
2321	 0.116843588650227 
2322	 0.116495557129383 
2323	 0.116292767226696 
2324	 0.115758821368217 
2325	 0.115248888731003 
2326	 0.114736340939999 
2327	 0.114037029445171 
2328	 0.113656871020794 
2329	 0.113308444619179 
2330	 0.112779282033443 
2331	 0.112409524619579 
2332	 0.112091898918152 
2333	 0.111651837825775 
2334	 0.111206270754337 
2335	 0.110974341630936 
2336	 0.110819667577744 
2337	 0.110513113439083 
2338	 0.11015422642231 
2339	 0.109772518277168 
2340	 0.10938086360693 
2341	 0.109041236341 
2342	 0.108932174742222 
2343	 0.108901642262936 
2344	 0.108629979193211 
2345	 0.108389042317867 
2346	 0.108200550079346 
2347	 0.107952259480953 
2348	 0.107917197048664 
2349	 0.107979997992516 
2350	 0.10801799595356 
2351	 0.108098171651363 
2352	 0.108243390917778 
2353	 0.108538337051868 
2354	 0.108579769730568 
2355	 0.108467765152454 
2356	 0.108597666025162 
2357	 0.108637064695358 
2358	 0.108721263706684 
2359	 0.109173938632011 
2360	 0.109275698661804 
2361	 0.109015546739101 
2362	 0.109107226133347 
2363	 0.109243005514145 
2364	 0.10942704230547 
2365	 0.109923928976059 
2366	 0.110029757022858 
2367	 0.109860122203827 
2368	 0.109966039657593 
2369	 0.110018581151962 
2370	 0.110082797706127 
2371	 0.110459171235561 
2372	 0.110471107065678 
2373	 0.110089585185051 
2374	 0.110019713640213 
2375	 0.1100754737854 
2376	 0.110008724033833 
2377	 0.110009901225567 
2378	 0.109940856695175 
2379	 0.109622813761234 
2380	 0.10947235673666 
2381	 0.109355695545673 
2382	 0.109473578631878 
2383	 0.10987239331007 
2384	 0.109986767172813 
2385	 0.110207758843899 
2386	 0.110242187976837 
2387	 0.109898135066032 
2388	 0.109859153628349 
2389	 0.109880670905113 
2390	 0.110015593469143 
2391	 0.110468715429306 
2392	 0.110510088503361 
2393	 0.110332913696766 
2394	 0.110376492142677 
2395	 0.110311679542065 
2396	 0.110221110284328 
2397	 0.110457628965378 
2398	 0.110284827649593 
2399	 0.109553329646587 
2400	 0.109338484704494 
2401	 0.109234891831875 
2402	 0.109144680202007 
2403	 0.10939858853817 
2404	 0.109404273331165 
2405	 0.109289772808552 
2406	 0.109198093414307 
2407	 0.109108224511147 
2408	 0.108883254230022 
2409	 0.108450554311275 
2410	 0.108129635453224 
2411	 0.107799433171749 
2412	 0.10748814791441 
2413	 0.1073327511549 
2414	 0.107001170516014 
2415	 0.106373600661755 
2416	 0.106132075190544 
2417	 0.106146283447742 
2418	 0.105915695428848 
2419	 0.105870112776756 
2420	 0.105629168450832 
2421	 0.104777477681637 
2422	 0.104594990611076 
2423	 0.104980647563934 
2424	 0.104886204004288 
2425	 0.104916252195835 
2426	 0.104724660515785 
2427	 0.103975117206573 
2428	 0.10373393446207 
2429	 0.103703387081623 
2430	 0.103717528283596 
2431	 0.104184508323669 
2432	 0.103957161307335 
2433	 0.103313893079758 
2434	 0.103029355406761 
2435	 0.102409221231937 
2436	 0.102188736200333 
2437	 0.102505877614021 
2438	 0.102502524852753 
2439	 0.102451555430889 
2440	 0.102311134338379 
2441	 0.102139882743359 
2442	 0.101910725235939 
2443	 0.101492874324322 
2444	 0.101198174059391 
2445	 0.100898146629333 
2446	 0.100773267447948 
2447	 0.100722827017307 
2448	 0.100771598517895 
2449	 0.1009416654706 
2450	 0.101169623434544 
2451	 0.101642280817032 
2452	 0.101710885763168 
2453	 0.101737275719643 
2454	 0.101470164954662 
2455	 0.100885331630707 
2456	 0.100779369473457 
2457	 0.100943014025688 
2458	 0.10116458684206 
2459	 0.101483829319477 
2460	 0.102153554558754 
2461	 0.102860286831856 
2462	 0.103282481431961 
2463	 0.103597193956375 
2464	 0.103535935282707 
2465	 0.103479370474815 
2466	 0.103250339627266 
2467	 0.103430882096291 
2468	 0.104017399251461 
2469	 0.104141868650913 
2470	 0.104459419846535 
2471	 0.104589685797691 
2472	 0.103972785174847 
2473	 0.103706203401089 
2474	 0.103865951299667 
2475	 0.103678539395332 
2476	 0.102933295071125 
2477	 0.102896489202976 
2478	 0.103067934513092 
2479	 0.103413596749306 
2480	 0.104946576058865 
2481	 0.105335526168346 
2482	 0.104918874800205 
2483	 0.104808300733566 
2484	 0.104044310748577 
2485	 0.103879638016224 
2486	 0.104431100189686 
2487	 0.10446947067976 
2488	 0.104200415313244 
2489	 0.104387916624546 
2490	 0.104965835809708 
2491	 0.104781195521355 
2492	 0.104413941502571 
2493	 0.104269817471504 
2494	 0.103343725204468 
2495	 0.103158973157406 
2496	 0.103678345680237 
2497	 0.104339368641376 
2498	 0.105434067547321 
2499	 0.105752252042294 
2500	 0.106352537870407 
