
Text conversion of header file \A_MEDIDAS\PROJETOS\BRASIL\BLOCO GAVIAO\JACOBINA\CANIF27\sco\CANIF27_026.10_00001.asd.ref
 -------------------------------------------------------------
                                                                                                                                                            
The instrument number was  16586/1
New ASD spectrum file: Program version = 6.00 file version = 1.00
Spectrum saved: 10/16/2018 at 10:10:38
VNIR integration time : 34
VNIR channel 1 wavelength = 350 wavelength step = 1
There were 50 samples per data value
xmin = 350 xmax= 2500
ymin= 0 ymax= 1.25
The instrument digitizes spectral values to 16 bits
SWIR1 gain was 214 offset was 2097
SWIR2 gain was 513 offset was 2267
Join between VNIR and SWIR1 was 1000 nm
Join between SWIR1 and SWIR2 was 1830 nm
Absolute Reflectance is Enabled
The Absolute Reflectance File is abs165861.ref
VNIR dark signal subtracted
50 dark measurements taken Tue Oct 16 09:52:54 2018
DCC value was 0
Data is compared to a white reference:
60 white reference measurements taken Tue Oct 16 09:53:02 2018
There was no foreoptic attached
Spectrum file is reflectance data
GPS-Latitude is S0
GPS-Longitude is E0
GPS-Altitude is 0
GPS-UTC is Wed Dec 31 17:00:00 1969

Smart Detector
Serial#  0
Signal (A)  0.000E00
Dark (A)  0.000E00
Ref (A)  0.000E00
Status  0 - Uninitialized
Gain  E-4
Averaging  0
Temp (C)  0.0
Humid (%)  0.0

Reflectance Absolute
Wavelength	CANIF27_26.10_00001.asd.ref
350	 0.280383586883545 
351	 0.278122842311859 
352	 0.267995774745941 
353	 0.262584447860718 
354	 0.267566800117493 
355	 0.272681802511215 
356	 0.275470316410065 
357	 0.276238232851028 
358	 0.276685357093811 
359	 0.278083086013794 
360	 0.281173825263977 
361	 0.282769680023193 
362	 0.278475046157837 
363	 0.276884227991104 
364	 0.279719710350037 
365	 0.284061014652252 
366	 0.282307922840118 
367	 0.281557470560074 
368	 0.281150490045547 
369	 0.280410528182983 
370	 0.284100323915482 
371	 0.286642163991928 
372	 0.286398947238922 
373	 0.28436079621315 
374	 0.284773886203766 
375	 0.286674916744232 
376	 0.288282215595245 
377	 0.287722796201706 
378	 0.287529498338699 
379	 0.287709355354309 
380	 0.288038283586502 
381	 0.288912624120712 
382	 0.290573090314865 
383	 0.291487663984299 
384	 0.2907595038414 
385	 0.294502466917038 
386	 0.296228736639023 
387	 0.29521855711937 
388	 0.296212166547775 
389	 0.297580718994141 
390	 0.299009263515472 
391	 0.300090998411179 
392	 0.299616098403931 
393	 0.300944119691849 
394	 0.302713930606842 
395	 0.302620619535446 
396	 0.30154487490654 
397	 0.302708208560944 
398	 0.305269539356232 
399	 0.305501043796539 
400	 0.305389374494553 
401	 0.30532294511795 
402	 0.305578619241714 
403	 0.306721895933151 
404	 0.306423366069794 
405	 0.306337714195251 
406	 0.308085530996323 
407	 0.308213233947754 
408	 0.308625757694244 
409	 0.309191733598709 
410	 0.308546811342239 
411	 0.308684110641479 
412	 0.308000266551971 
413	 0.306607902050018 
414	 0.307991236448288 
415	 0.308861464262009 
416	 0.308834046125412 
417	 0.308306366205215 
418	 0.307153552770615 
419	 0.307198494672775 
420	 0.307895451784134 
421	 0.30740749835968 
422	 0.306815892457962 
423	 0.307337999343872 
424	 0.308412879705429 
425	 0.306828796863556 
426	 0.306969046592712 
427	 0.307461529970169 
428	 0.306546002626419 
429	 0.30670240521431 
430	 0.306916147470474 
431	 0.306748300790787 
432	 0.306262731552124 
433	 0.306214988231659 
434	 0.306516528129578 
435	 0.306889742612839 
436	 0.306956350803375 
437	 0.307037323713303 
438	 0.307469040155411 
439	 0.308345973491669 
440	 0.308964848518372 
441	 0.309527277946472 
442	 0.309954017400742 
443	 0.310041308403015 
444	 0.310324460268021 
445	 0.310975462198257 
446	 0.311876475811005 
447	 0.312574476003647 
448	 0.312842577695847 
449	 0.313074380159378 
450	 0.313676416873932 
451	 0.314288049936295 
452	 0.314953446388245 
453	 0.315526574850082 
454	 0.315777212381363 
455	 0.316353172063828 
456	 0.316911786794662 
457	 0.317244350910187 
458	 0.317650884389877 
459	 0.318225741386414 
460	 0.318708479404449 
461	 0.318909108638763 
462	 0.31961527466774 
463	 0.320248901844025 
464	 0.32057449221611 
465	 0.320738136768341 
466	 0.32115164399147 
467	 0.321680903434753 
468	 0.322141587734222 
469	 0.322465896606445 
470	 0.322894960641861 
471	 0.32343327999115 
472	 0.323958694934845 
473	 0.324220776557922 
474	 0.324637144804001 
475	 0.325270056724548 
476	 0.325757890939713 
477	 0.326072365045547 
478	 0.326606839895248 
479	 0.327492654323578 
480	 0.327863842248917 
481	 0.328497678041458 
482	 0.329258173704147 
483	 0.32966560125351 
484	 0.330338209867477 
485	 0.331033825874329 
486	 0.331584960222244 
487	 0.332030564546585 
488	 0.33272585272789 
489	 0.333410650491714 
490	 0.333847969770432 
491	 0.334461003541946 
492	 0.335084557533264 
493	 0.335593640804291 
494	 0.335934966802597 
495	 0.336458832025528 
496	 0.336984306573868 
497	 0.33741682767868 
498	 0.337928950786591 
499	 0.3383409678936 
500	 0.338597744703293 
501	 0.338770121335983 
502	 0.339280277490616 
503	 0.339660584926605 
504	 0.339802980422974 
505	 0.339934915304184 
506	 0.340364784002304 
507	 0.340766936540604 
508	 0.34094625711441 
509	 0.341202974319458 
510	 0.341490894556046 
511	 0.341727316379547 
512	 0.341856390237808 
513	 0.34209468960762 
514	 0.342335879802704 
515	 0.342491269111633 
516	 0.342521548271179 
517	 0.342686802148819 
518	 0.342814296483994 
519	 0.342790424823761 
520	 0.342897176742554 
521	 0.343012362718582 
522	 0.343066096305847 
523	 0.343026459217072 
524	 0.342956095933914 
525	 0.342896342277527 
526	 0.342841506004334 
527	 0.342729061841965 
528	 0.342736423015594 
529	 0.342695266008377 
530	 0.342455834150314 
531	 0.342214733362198 
532	 0.342025518417358 
533	 0.341869056224823 
534	 0.341679781675339 
535	 0.341449528932571 
536	 0.341225624084473 
537	 0.341005861759186 
538	 0.340686410665512 
539	 0.340391993522644 
540	 0.340101093053818 
541	 0.339775711297989 
542	 0.339516133069992 
543	 0.339281678199768 
544	 0.339031279087067 
545	 0.338729292154312 
546	 0.338345348834991 
547	 0.33795040845871 
548	 0.337572783231735 
549	 0.337095350027084 
550	 0.336709409952164 
551	 0.336327582597733 
552	 0.335795670747757 
553	 0.335275113582611 
554	 0.334702998399735 
555	 0.334064722061157 
556	 0.333414286375046 
557	 0.332862764596939 
558	 0.332431375980377 
559	 0.332075953483582 
560	 0.331662356853485 
561	 0.331149458885193 
562	 0.330571085214615 
563	 0.330001503229141 
564	 0.32944843173027 
565	 0.328920096158981 
566	 0.328425645828247 
567	 0.327984362840652 
568	 0.327478289604187 
569	 0.326867192983627 
570	 0.326119035482407 
571	 0.325081199407578 
572	 0.324212968349457 
573	 0.323605179786682 
574	 0.323084026575089 
575	 0.322758793830872 
576	 0.322509169578552 
577	 0.322197049856186 
578	 0.321687877178192 
579	 0.321266710758209 
580	 0.32084184885025 
581	 0.320234388113022 
582	 0.319467097520828 
583	 0.318811118602753 
584	 0.3182452917099 
585	 0.3175008893013 
586	 0.316889703273773 
587	 0.31642946600914 
588	 0.316119313240051 
589	 0.316079020500183 
590	 0.315985441207886 
591	 0.315762430429459 
592	 0.315437376499176 
593	 0.314972341060638 
594	 0.314452528953552 
595	 0.313990205526352 
596	 0.31369936466217 
597	 0.313265711069107 
598	 0.312683343887329 
599	 0.312025994062424 
600	 0.3113794028759 
601	 0.310685396194458 
602	 0.310018658638 
603	 0.309488862752914 
604	 0.308977991342545 
605	 0.308613389730453 
606	 0.308448910713196 
607	 0.308414578437805 
608	 0.308279544115067 
609	 0.308088213205338 
610	 0.307924091815948 
611	 0.3077372610569 
612	 0.307510137557983 
613	 0.307231605052948 
614	 0.306906282901764 
615	 0.306590348482132 
616	 0.30645763874054 
617	 0.306483894586563 
618	 0.306329011917114 
619	 0.306197822093964 
620	 0.306096434593201 
621	 0.306020617485046 
622	 0.306136876344681 
623	 0.306241929531097 
624	 0.306280076503754 
625	 0.306317567825317 
626	 0.306459933519363 
627	 0.306674182415009 
628	 0.306917190551758 
629	 0.30717009305954 
630	 0.307356595993042 
631	 0.307575732469559 
632	 0.307943761348724 
633	 0.308407992124558 
634	 0.308751195669174 
635	 0.30899766087532 
636	 0.309367060661316 
637	 0.30994713306427 
638	 0.31052103638649 
639	 0.310945183038712 
640	 0.311309278011322 
641	 0.311619132757187 
642	 0.312015533447266 
643	 0.312540173530579 
644	 0.312602490186691 
645	 0.312740594148636 
646	 0.313067674636841 
647	 0.313334345817566 
648	 0.313813805580139 
649	 0.314404010772705 
650	 0.315009087324142 
651	 0.315665304660797 
652	 0.316328465938568 
653	 0.316965848207474 
654	 0.317568093538284 
655	 0.318186551332474 
656	 0.318830937147141 
657	 0.319473206996918 
658	 0.320076137781143 
659	 0.320849627256393 
660	 0.321791082620621 
661	 0.322784543037415 
662	 0.323565363883972 
663	 0.324456691741943 
664	 0.325411736965179 
665	 0.32631978392601 
666	 0.327376902103424 
667	 0.328279256820679 
668	 0.329068601131439 
669	 0.330039143562317 
670	 0.331076443195343 
671	 0.332050234079361 
672	 0.33294865489006 
673	 0.333970040082932 
674	 0.334894895553589 
675	 0.335758030414581 
676	 0.33658292889595 
677	 0.337051451206207 
678	 0.337360382080078 
679	 0.337674766778946 
680	 0.338094800710678 
681	 0.338449597358704 
682	 0.338625729084015 
683	 0.338665843009949 
684	 0.338812530040741 
685	 0.339316487312317 
686	 0.340109139680862 
687	 0.341013610363007 
688	 0.341856807470322 
689	 0.342836618423462 
690	 0.34379169344902 
691	 0.344451785087585 
692	 0.345257222652435 
693	 0.346034616231918 
694	 0.346784263849258 
695	 0.347768187522888 
696	 0.34881579875946 
697	 0.34996172785759 
698	 0.351227879524231 
699	 0.352510213851929 
700	 0.353725045919418 
701	 0.354938894510269 
702	 0.356244087219238 
703	 0.357470065355301 
704	 0.358680367469788 
705	 0.359850525856018 
706	 0.360885322093964 
707	 0.362053602933884 
708	 0.363164007663727 
709	 0.364128947257996 
710	 0.36518782377243 
711	 0.366347670555115 
712	 0.3674675822258 
713	 0.368428349494934 
714	 0.369386941194534 
715	 0.370372265577316 
716	 0.371365547180176 
717	 0.372331589460373 
718	 0.373370975255966 
719	 0.374333292245865 
720	 0.375186711549759 
721	 0.376075774431229 
722	 0.376989752054214 
723	 0.377985537052155 
724	 0.379006236791611 
725	 0.379667162895203 
726	 0.380400538444519 
727	 0.381275653839111 
728	 0.38219889998436 
729	 0.383072674274445 
730	 0.383831411600113 
731	 0.384489476680756 
732	 0.385121941566467 
733	 0.385717153549194 
734	 0.386424899101257 
735	 0.387246161699295 
736	 0.387937843799591 
737	 0.388731569051743 
738	 0.389454454183578 
739	 0.389962553977966 
740	 0.390465259552002 
741	 0.391075313091278 
742	 0.391720175743103 
743	 0.392288446426392 
744	 0.392994046211243 
745	 0.393653988838196 
746	 0.39420947432518 
747	 0.394731521606445 
748	 0.395257562398911 
749	 0.395741671323776 
750	 0.396229028701782 
751	 0.396918296813965 
752	 0.397565215826035 
753	 0.398162454366684 
754	 0.398713797330856 
755	 0.399037152528763 
756	 0.399599671363831 
757	 0.400264412164688 
758	 0.400708764791489 
759	 0.401104032993317 
760	 0.40150585770607 
761	 0.401938766241074 
762	 0.402394771575928 
763	 0.402795940637589 
764	 0.403242230415344 
765	 0.403716415166855 
766	 0.404031068086624 
767	 0.404332429170609 
768	 0.404725968837738 
769	 0.405216991901398 
770	 0.40561243891716 
771	 0.40602707862854 
772	 0.40637081861496 
773	 0.406578332185745 
774	 0.406929641962051 
775	 0.407252252101898 
776	 0.407535314559937 
777	 0.407850980758667 
778	 0.408141613006592 
779	 0.408468246459961 
780	 0.408805251121521 
781	 0.409053087234497 
782	 0.409325987100601 
783	 0.409605085849762 
784	 0.409893065690994 
785	 0.410251319408417 
786	 0.410405904054642 
787	 0.41052034497261 
788	 0.410763055086136 
789	 0.411069869995117 
790	 0.411194115877151 
791	 0.411266177892685 
792	 0.411493271589279 
793	 0.41182467341423 
794	 0.412147551774979 
795	 0.412339746952057 
796	 0.412359803915024 
797	 0.412578374147415 
798	 0.412818968296051 
799	 0.412994772195816 
800	 0.413144946098328 
801	 0.413455456495285 
802	 0.413739562034607 
803	 0.413921743631363 
804	 0.414117068052292 
805	 0.41426944732666 
806	 0.414404183626175 
807	 0.414604932069778 
808	 0.41502970457077 
809	 0.415286719799042 
810	 0.415476977825165 
811	 0.415720552206039 
812	 0.415804237127304 
813	 0.415948450565338 
814	 0.416165322065353 
815	 0.416393876075745 
816	 0.416620761156082 
817	 0.416681796312332 
818	 0.416773021221161 
819	 0.417144984006882 
820	 0.417345434427261 
821	 0.417514622211456 
822	 0.417707532644272 
823	 0.417898625135422 
824	 0.418098360300064 
825	 0.418249815702438 
826	 0.418334454298019 
827	 0.418381869792938 
828	 0.418434292078018 
829	 0.418631106615067 
830	 0.418924123048782 
831	 0.419047117233276 
832	 0.419235229492188 
833	 0.419438660144806 
834	 0.419583857059479 
835	 0.419648110866547 
836	 0.41982501745224 
837	 0.419985294342041 
838	 0.420065939426422 
839	 0.420304447412491 
840	 0.420498758554459 
841	 0.420700669288635 
842	 0.420928359031677 
843	 0.420910984277725 
844	 0.420891106128693 
845	 0.42100527882576 
846	 0.421275824308395 
847	 0.421505063772202 
848	 0.421676427125931 
849	 0.42183792591095 
850	 0.422016978263855 
851	 0.422031879425049 
852	 0.422026753425598 
853	 0.422130018472672 
854	 0.422398865222931 
855	 0.422661036252975 
856	 0.422952026128769 
857	 0.423182100057602 
858	 0.423228651285172 
859	 0.423174917697906 
860	 0.423254042863846 
861	 0.423441290855408 
862	 0.423571765422821 
863	 0.423837721347809 
864	 0.423976302146912 
865	 0.424026668071747 
866	 0.424225717782974 
867	 0.42433300614357 
868	 0.424486398696899 
869	 0.424699008464813 
870	 0.424867004156113 
871	 0.425035148859024 
872	 0.425269097089767 
873	 0.425505757331848 
874	 0.425605833530426 
875	 0.425800740718842 
876	 0.425899505615234 
877	 0.425955206155777 
878	 0.426247596740723 
879	 0.426597535610199 
880	 0.426817506551743 
881	 0.426917016506195 
882	 0.427089810371399 
883	 0.427366703748703 
884	 0.427546441555023 
885	 0.427647083997726 
886	 0.427890032529831 
887	 0.427995711565018 
888	 0.428185522556305 
889	 0.428490340709686 
890	 0.428700089454651 
891	 0.428749859333038 
892	 0.428871870040894 
893	 0.42918986082077 
894	 0.429636389017105 
895	 0.429876148700714 
896	 0.430028468370438 
897	 0.430145472288132 
898	 0.430182307958603 
899	 0.430261015892029 
900	 0.430426269769669 
901	 0.430657356977463 
902	 0.430894255638123 
903	 0.431172698736191 
904	 0.431380867958069 
905	 0.43157771229744 
906	 0.431901067495346 
907	 0.432062447071075 
908	 0.432123690843582 
909	 0.432187736034393 
910	 0.432326585054398 
911	 0.432382941246033 
912	 0.432699501514435 
913	 0.43311071395874 
914	 0.433271318674088 
915	 0.433668047189713 
916	 0.433887809514999 
917	 0.43391415476799 
918	 0.433979988098145 
919	 0.434305459260941 
920	 0.434476286172867 
921	 0.434610933065414 
922	 0.434957325458527 
923	 0.435315787792206 
924	 0.435599356889725 
925	 0.43586254119873 
926	 0.436137735843658 
927	 0.436227291822433 
928	 0.436420500278473 
929	 0.436668395996094 
930	 0.436887621879578 
931	 0.437153249979019 
932	 0.437401562929153 
933	 0.437603086233139 
934	 0.437832534313202 
935	 0.438281506299973 
936	 0.438605785369873 
937	 0.438644826412201 
938	 0.438599169254303 
939	 0.438956201076508 
940	 0.439205139875412 
941	 0.439276993274689 
942	 0.439272522926331 
943	 0.439358681440353 
944	 0.439453303813934 
945	 0.439512103796005 
946	 0.439586997032166 
947	 0.439709842205048 
948	 0.439535111188889 
949	 0.439139246940613 
950	 0.438707709312439 
951	 0.438362866640091 
952	 0.437861531972885 
953	 0.437530428171158 
954	 0.437094479799271 
955	 0.436367303133011 
956	 0.435815721750259 
957	 0.435433566570282 
958	 0.435059994459152 
959	 0.434673547744751 
960	 0.434514313936234 
961	 0.434553503990173 
962	 0.434682637453079 
963	 0.434857189655304 
964	 0.43513634800911 
965	 0.435663104057312 
966	 0.436499863862991 
967	 0.437451303005219 
968	 0.438301742076874 
969	 0.439434617757797 
970	 0.440529197454453 
971	 0.441351920366287 
972	 0.441923946142197 
973	 0.442728996276855 
974	 0.443536996841431 
975	 0.444156497716904 
976	 0.444586396217346 
977	 0.445080697536469 
978	 0.445589989423752 
979	 0.446166306734085 
980	 0.446676671504974 
981	 0.446920037269592 
982	 0.447330713272095 
983	 0.447709828615189 
984	 0.44792228937149 
985	 0.44795161485672 
986	 0.447918593883514 
987	 0.447936028242111 
988	 0.448171079158783 
989	 0.448610335588455 
990	 0.448932081460953 
991	 0.449089914560318 
992	 0.449125587940216 
993	 0.449215054512024 
994	 0.449531435966492 
995	 0.449634522199631 
996	 0.44986280798912 
997	 0.450075805187225 
998	 0.450056403875351 
999	 0.450323939323425 
1000	 0.450378894805908 
1001	 0.429724484682083 
1002	 0.429837793111801 
1003	 0.43004310131073 
1004	 0.430344969034195 
1005	 0.430565685033798 
1006	 0.430773437023163 
1007	 0.43094003200531 
1008	 0.431081205606461 
1009	 0.431208848953247 
1010	 0.431274920701981 
1011	 0.431359529495239 
1012	 0.431466788053513 
1013	 0.431555390357971 
1014	 0.431615054607391 
1015	 0.431680172681808 
1016	 0.431773632764816 
1017	 0.431784301996231 
1018	 0.431835323572159 
1019	 0.431972086429596 
1020	 0.432059973478317 
1021	 0.432133138179779 
1022	 0.432207494974136 
1023	 0.432230949401855 
1024	 0.432245790958405 
1025	 0.432239532470703 
1026	 0.432270556688309 
1027	 0.432273745536804 
1028	 0.432333678007126 
1029	 0.432449877262115 
1030	 0.432571262121201 
1031	 0.432643890380859 
1032	 0.432646572589874 
1033	 0.432712554931641 
1034	 0.432731717824936 
1035	 0.432749539613724 
1036	 0.432850688695908 
1037	 0.432871460914612 
1038	 0.432897329330444 
1039	 0.432929307222366 
1040	 0.432980895042419 
1041	 0.432988494634628 
1042	 0.432986170053482 
1043	 0.432997405529022 
1044	 0.43298727273941 
1045	 0.432981014251709 
1046	 0.433057695627213 
1047	 0.43305966258049 
1048	 0.43311619758606 
1049	 0.43316638469696 
1050	 0.433143526315689 
1051	 0.433139592409134 
1052	 0.433121234178543 
1053	 0.433073729276657 
1054	 0.433060079813004 
1055	 0.433132737874985 
1056	 0.433077543973923 
1057	 0.432961642742157 
1058	 0.432847082614899 
1059	 0.432747185230255 
1060	 0.432611107826233 
1061	 0.432517528533936 
1062	 0.432581156492233 
1063	 0.432612746953964 
1064	 0.432559639215469 
1065	 0.432507932186127 
1066	 0.432411253452301 
1067	 0.432303696870804 
1068	 0.432293742895126 
1069	 0.432279497385025 
1070	 0.432317763566971 
1071	 0.432298302650452 
1072	 0.432282149791718 
1073	 0.43223038315773 
1074	 0.432094037532806 
1075	 0.432076245546341 
1076	 0.432035863399506 
1077	 0.431917756795883 
1078	 0.43188351392746 
1079	 0.431853413581848 
1080	 0.431799232959747 
1081	 0.431801080703735 
1082	 0.431827187538147 
1083	 0.431874066591263 
1084	 0.431930989027023 
1085	 0.431938588619232 
1086	 0.431953281164169 
1087	 0.431941777467728 
1088	 0.431962907314301 
1089	 0.431998372077942 
1090	 0.432023763656616 
1091	 0.432023257017136 
1092	 0.431935012340546 
1093	 0.431843161582947 
1094	 0.431852251291275 
1095	 0.431872218847275 
1096	 0.431894779205322 
1097	 0.431935846805573 
1098	 0.431925892829895 
1099	 0.431879550218582 
1100	 0.431865572929382 
1101	 0.431886523962021 
1102	 0.431928426027298 
1103	 0.431953877210617 
1104	 0.43198624253273 
1105	 0.432011246681213 
1106	 0.431956201791763 
1107	 0.431915789842606 
1108	 0.431914389133453 
1109	 0.431921899318695 
1110	 0.432019472122192 
1111	 0.432077795267105 
1112	 0.432167410850525 
1113	 0.432313740253448 
1114	 0.432336896657944 
1115	 0.432425379753113 
1116	 0.432477861642838 
1117	 0.432487010955811 
1118	 0.432438731193542 
1119	 0.432471454143524 
1120	 0.43242084980011 
1121	 0.43243795633316 
1122	 0.432500511407852 
1123	 0.432432144880295 
1124	 0.432427078485489 
1125	 0.432412296533585 
1126	 0.432334691286087 
1127	 0.432348191738129 
1128	 0.432353675365448 
1129	 0.432363092899323 
1130	 0.432357996702194 
1131	 0.432361423969269 
1132	 0.43239751458168 
1133	 0.432325899600983 
1134	 0.432253032922745 
1135	 0.432163447141647 
1136	 0.43205851316452 
1137	 0.431953549385071 
1138	 0.431871831417084 
1139	 0.431828379631042 
1140	 0.431895077228546 
1141	 0.431880861520767 
1142	 0.431850701570511 
1143	 0.431829214096069 
1144	 0.431706994771957 
1145	 0.431597650051117 
1146	 0.431533098220825 
1147	 0.43147423863411 
1148	 0.431364566087723 
1149	 0.431294500827789 
1150	 0.431254863739014 
1151	 0.431204199790955 
1152	 0.431146830320358 
1153	 0.431140691041946 
1154	 0.431085616350174 
1155	 0.431026130914688 
1156	 0.431014478206635 
1157	 0.430949449539185 
1158	 0.430926620960236 
1159	 0.430872321128845 
1160	 0.430789738893509 
1161	 0.43080797791481 
1162	 0.430790364742279 
1163	 0.430797040462494 
1164	 0.430840522050858 
1165	 0.430813878774643 
1166	 0.430806457996368 
1167	 0.430830776691437 
1168	 0.430821686983109 
1169	 0.430793672800064 
1170	 0.430745214223862 
1171	 0.430692195892334 
1172	 0.430649429559708 
1173	 0.430645793676376 
1174	 0.430669516324997 
1175	 0.430705964565277 
1176	 0.430730253458023 
1177	 0.430750817060471 
1178	 0.430749148130417 
1179	 0.43070775270462 
1180	 0.430675357580185 
1181	 0.430614203214645 
1182	 0.430592447519302 
1183	 0.430592596530914 
1184	 0.430647134780884 
1185	 0.430648624897003 
1186	 0.430650800466537 
1187	 0.4306420981884 
1188	 0.430597543716431 
1189	 0.430587977170944 
1190	 0.430635362863541 
1191	 0.430660516023636 
1192	 0.430637121200562 
1193	 0.430634081363678 
1194	 0.430612623691559 
1195	 0.430549174547195 
1196	 0.430536210536957 
1197	 0.430533885955811 
1198	 0.430508881807327 
1199	 0.430462121963501 
1200	 0.430426597595215 
1201	 0.430454730987549 
1202	 0.430446624755859 
1203	 0.430440932512283 
1204	 0.430427819490433 
1205	 0.430392354726791 
1206	 0.430343866348267 
1207	 0.430284947156906 
1208	 0.430258721113205 
1209	 0.430181831121445 
1210	 0.43007230758667 
1211	 0.429987818002701 
1212	 0.429887384176254 
1213	 0.429734319448471 
1214	 0.429645955562592 
1215	 0.429567754268646 
1216	 0.429412603378296 
1217	 0.429285913705826 
1218	 0.429175943136215 
1219	 0.429070383310318 
1220	 0.428954720497131 
1221	 0.428868144750595 
1222	 0.428810238838196 
1223	 0.428736627101898 
1224	 0.428671300411224 
1225	 0.428583323955536 
1226	 0.428475767374039 
1227	 0.428402930498123 
1228	 0.42830953001976 
1229	 0.42818695306778 
1230	 0.428072869777679 
1231	 0.427992433309555 
1232	 0.427927702665329 
1233	 0.427817642688751 
1234	 0.427683293819427 
1235	 0.42755314707756 
1236	 0.427365481853485 
1237	 0.427165031433105 
1238	 0.426969319581985 
1239	 0.426773101091385 
1240	 0.426549136638641 
1241	 0.426318824291229 
1242	 0.42608842253685 
1243	 0.425827085971832 
1244	 0.425601750612259 
1245	 0.425371199846268 
1246	 0.425151735544205 
1247	 0.424924165010452 
1248	 0.424775302410126 
1249	 0.424649864435196 
1250	 0.424594134092331 
1251	 0.424650341272354 
1252	 0.424683392047882 
1253	 0.424684911966324 
1254	 0.424747586250305 
1255	 0.424827605485916 
1256	 0.424900978803635 
1257	 0.425003528594971 
1258	 0.425065815448761 
1259	 0.425115078687668 
1260	 0.425124526023865 
1261	 0.425149649381638 
1262	 0.425197809934616 
1263	 0.425192892551422 
1264	 0.425130635499954 
1265	 0.425102919340134 
1266	 0.425071448087692 
1267	 0.425015419721603 
1268	 0.424974769353867 
1269	 0.424918979406357 
1270	 0.42482116818428 
1271	 0.424746304750443 
1272	 0.42467325925827 
1273	 0.424583524465561 
1274	 0.424501955509186 
1275	 0.424393743276596 
1276	 0.424271672964096 
1277	 0.424119532108307 
1278	 0.423913419246674 
1279	 0.423702448606491 
1280	 0.423470944166183 
1281	 0.423220157623291 
1282	 0.422944962978363 
1283	 0.422646284103394 
1284	 0.422336786985397 
1285	 0.422012895345688 
1286	 0.421684473752975 
1287	 0.421343684196472 
1288	 0.420967131853104 
1289	 0.420562028884888 
1290	 0.420155823230743 
1291	 0.419716358184814 
1292	 0.419293493032455 
1293	 0.418865919113159 
1294	 0.418430685997009 
1295	 0.418060600757599 
1296	 0.41773721575737 
1297	 0.417354017496109 
1298	 0.416985839605331 
1299	 0.416626781225204 
1300	 0.416227787733078 
1301	 0.415940910577774 
1302	 0.415699601173401 
1303	 0.415418744087219 
1304	 0.415133327245712 
1305	 0.414844185113907 
1306	 0.414527416229248 
1307	 0.414251118898392 
1308	 0.413972735404968 
1309	 0.413715541362762 
1310	 0.413513422012329 
1311	 0.413283616304398 
1312	 0.413022488355637 
1313	 0.412825912237167 
1314	 0.412656456232071 
1315	 0.412483125925064 
1316	 0.412333160638809 
1317	 0.412235468626022 
1318	 0.412073105573654 
1319	 0.411933928728104 
1320	 0.411875694990158 
1321	 0.411791503429413 
1322	 0.411723256111145 
1323	 0.411711484193802 
1324	 0.411670982837677 
1325	 0.411592870950699 
1326	 0.411573618650436 
1327	 0.411581844091415 
1328	 0.411603212356567 
1329	 0.411662489175797 
1330	 0.411719769239426 
1331	 0.411774128675461 
1332	 0.411855429410934 
1333	 0.411937654018402 
1334	 0.412061095237732 
1335	 0.412241846323013 
1336	 0.412386238574982 
1337	 0.412533074617386 
1338	 0.4126837849617 
1339	 0.412831544876099 
1340	 0.41297847032547 
1341	 0.413151323795319 
1342	 0.413280159235001 
1343	 0.413410395383835 
1344	 0.413511514663696 
1345	 0.413564890623093 
1346	 0.413704693317413 
1347	 0.413855910301209 
1348	 0.413912057876587 
1349	 0.413959503173828 
1350	 0.413927435874939 
1351	 0.413842499256134 
1352	 0.413667351007462 
1353	 0.413520276546478 
1354	 0.413361996412277 
1355	 0.413143992424011 
1356	 0.412907719612122 
1357	 0.412603050470352 
1358	 0.412244826555252 
1359	 0.411845266819 
1360	 0.411425173282623 
1361	 0.410923659801483 
1362	 0.410353869199753 
1363	 0.409743905067444 
1364	 0.40904375910759 
1365	 0.408371448516846 
1366	 0.407701462507248 
1367	 0.406986624002457 
1368	 0.406245976686478 
1369	 0.405505329370499 
1370	 0.404755890369415 
1371	 0.40398633480072 
1372	 0.403279602527618 
1373	 0.402578800916672 
1374	 0.401823312044144 
1375	 0.401070713996887 
1376	 0.400344043970108 
1377	 0.399545729160309 
1378	 0.398780047893524 
1379	 0.397972583770752 
1380	 0.396916627883911 
1381	 0.395858556032181 
1382	 0.394300371408463 
1383	 0.392636269330978 
1384	 0.39023146033287 
1385	 0.387577474117279 
1386	 0.38400998711586 
1387	 0.380004853010178 
1388	 0.374918282032013 
1389	 0.369053840637207 
1390	 0.362296283245087 
1391	 0.354496687650681 
1392	 0.346110343933105 
1393	 0.336533606052399 
1394	 0.327057421207428 
1395	 0.31658923625946 
1396	 0.306769251823425 
1397	 0.296567022800446 
1398	 0.287368893623352 
1399	 0.278561860322952 
1400	 0.270527452230453 
1401	 0.263406723737717 
1402	 0.257185339927673 
1403	 0.251828700304031 
1404	 0.247139513492584 
1405	 0.243133693933487 
1406	 0.239720568060875 
1407	 0.236813321709633 
1408	 0.234481051564217 
1409	 0.232735857367516 
1410	 0.231695517897606 
1411	 0.23167958855629 
1412	 0.23224675655365 
1413	 0.234283640980721 
1414	 0.23740853369236 
1415	 0.241689682006836 
1416	 0.247261196374893 
1417	 0.253680348396301 
1418	 0.261484444141388 
1419	 0.269418269395828 
1420	 0.278546929359436 
1421	 0.287218451499939 
1422	 0.296428322792053 
1423	 0.304967701435089 
1424	 0.313539505004883 
1425	 0.321390569210052 
1426	 0.32886004447937 
1427	 0.335645973682404 
1428	 0.341844171285629 
1429	 0.347535610198975 
1430	 0.352583914995193 
1431	 0.357214570045471 
1432	 0.361275762319565 
1433	 0.365025341510773 
1434	 0.368328839540482 
1435	 0.371253103017807 
1436	 0.373888999223709 
1437	 0.376208752393723 
1438	 0.378171354532242 
1439	 0.379882395267487 
1440	 0.381344795227051 
1441	 0.382588267326355 
1442	 0.38368833065033 
1443	 0.384617537260056 
1444	 0.38540506362915 
1445	 0.386069029569626 
1446	 0.386679857969284 
1447	 0.387162834405899 
1448	 0.387620538473129 
1449	 0.388019233942032 
1450	 0.388384580612183 
1451	 0.388678967952728 
1452	 0.38894858956337 
1453	 0.389189183712006 
1454	 0.389384061098099 
1455	 0.389497637748718 
1456	 0.389664262533188 
1457	 0.389833956956863 
1458	 0.389966517686844 
1459	 0.390118896961212 
1460	 0.390217155218124 
1461	 0.390231490135193 
1462	 0.390310198068619 
1463	 0.3903948366642 
1464	 0.390475213527679 
1465	 0.390599697828293 
1466	 0.390674889087677 
1467	 0.390707582235336 
1468	 0.390766829252243 
1469	 0.390798389911652 
1470	 0.390861988067627 
1471	 0.39097273349762 
1472	 0.391050755977631 
1473	 0.391151309013367 
1474	 0.39120951294899 
1475	 0.391213715076447 
1476	 0.391236573457718 
1477	 0.391270756721497 
1478	 0.391289383172989 
1479	 0.391372829675674 
1480	 0.391449451446533 
1481	 0.391466677188873 
1482	 0.391494184732437 
1483	 0.391537040472031 
1484	 0.391582548618317 
1485	 0.391650438308716 
1486	 0.391729652881622 
1487	 0.391791701316834 
1488	 0.39181199669838 
1489	 0.391857922077179 
1490	 0.391962200403214 
1491	 0.392056494951248 
1492	 0.39215287566185 
1493	 0.392203330993652 
1494	 0.392219543457031 
1495	 0.392233997583389 
1496	 0.392206639051437 
1497	 0.392218768596649 
1498	 0.392262548208237 
1499	 0.392279177904129 
1500	 0.392277181148529 
1501	 0.392299115657806 
1502	 0.392320871353149 
1503	 0.392339438199997 
1504	 0.392373025417328 
1505	 0.392424315214157 
1506	 0.392464190721512 
1507	 0.392515003681183 
1508	 0.39262655377388 
1509	 0.392656862735748 
1510	 0.392634510993958 
1511	 0.392645597457886 
1512	 0.392630368471146 
1513	 0.392635047435761 
1514	 0.392656862735748 
1515	 0.392678767442703 
1516	 0.392688423395157 
1517	 0.392725557088852 
1518	 0.392820209264755 
1519	 0.392863988876343 
1520	 0.392869561910629 
1521	 0.392913281917572 
1522	 0.392954647541046 
1523	 0.392983615398407 
1524	 0.393082022666931 
1525	 0.393100649118423 
1526	 0.393009006977081 
1527	 0.392991155385971 
1528	 0.392981737852097 
1529	 0.392959207296371 
1530	 0.392949879169464 
1531	 0.39298751950264 
1532	 0.392962247133255 
1533	 0.392926275730133 
1534	 0.392891079187393 
1535	 0.392839729785919 
1536	 0.392790645360947 
1537	 0.392747193574905 
1538	 0.392693042755127 
1539	 0.392624258995056 
1540	 0.392540067434311 
1541	 0.392456024885178 
1542	 0.392398476600647 
1543	 0.392337501049042 
1544	 0.39229017496109 
1545	 0.392258048057556 
1546	 0.39222440123558 
1547	 0.39221864938736 
1548	 0.392213076353073 
1549	 0.392163038253784 
1550	 0.392082571983337 
1551	 0.39201146364212 
1552	 0.391936361789703 
1553	 0.39188289642334 
1554	 0.391896456480026 
1555	 0.391893118619919 
1556	 0.391834944486618 
1557	 0.391779601573944 
1558	 0.391712099313736 
1559	 0.391640961170197 
1560	 0.39161491394043 
1561	 0.391581773757935 
1562	 0.391526699066162 
1563	 0.391466945409775 
1564	 0.391384989023209 
1565	 0.39133208990097 
1566	 0.391310960054398 
1567	 0.391277283430099 
1568	 0.391218304634094 
1569	 0.391153424978256 
1570	 0.391081929206848 
1571	 0.390973031520844 
1572	 0.390896379947662 
1573	 0.390838354825974 
1574	 0.39077752828598 
1575	 0.3907151222229 
1576	 0.390671879053116 
1577	 0.390650451183319 
1578	 0.390605866909027 
1579	 0.390574842691422 
1580	 0.390489727258682 
1581	 0.390356481075287 
1582	 0.390265315771103 
1583	 0.390153408050537 
1584	 0.39008241891861 
1585	 0.390063494443893 
1586	 0.390001088380814 
1587	 0.389935821294785 
1588	 0.389863640069962 
1589	 0.389768302440643 
1590	 0.38968500494957 
1591	 0.389604985713959 
1592	 0.389520823955536 
1593	 0.38943475484848 
1594	 0.389358043670654 
1595	 0.389301240444183 
1596	 0.389195024967194 
1597	 0.389048367738724 
1598	 0.388960331678391 
1599	 0.388863176107407 
1600	 0.3887899518013 
1601	 0.388790220022202 
1602	 0.388717383146286 
1603	 0.388581842184067 
1604	 0.3885158598423 
1605	 0.388482064008713 
1606	 0.388422191143036 
1607	 0.388398945331573 
1608	 0.388318538665771 
1609	 0.388167947530746 
1610	 0.388062924146652 
1611	 0.387959718704224 
1612	 0.38785845041275 
1613	 0.387780249118805 
1614	 0.387683928012848 
1615	 0.387581765651703 
1616	 0.387488931417465 
1617	 0.387371093034744 
1618	 0.387284249067307 
1619	 0.387218713760376 
1620	 0.38714811205864 
1621	 0.387106746435165 
1622	 0.387057155370712 
1623	 0.387016206979752 
1624	 0.386924028396606 
1625	 0.386793106794357 
1626	 0.386692345142365 
1627	 0.386572927236557 
1628	 0.38646587729454 
1629	 0.386402040719986 
1630	 0.386288851499558 
1631	 0.386123389005661 
1632	 0.3860042989254 
1633	 0.385888993740082 
1634	 0.385780274868011 
1635	 0.385720044374466 
1636	 0.385614186525345 
1637	 0.385442107915878 
1638	 0.385354727506638 
1639	 0.385313212871552 
1640	 0.385228872299194 
1641	 0.385197192430496 
1642	 0.385116726160049 
1643	 0.384944021701813 
1644	 0.384835600852966 
1645	 0.384757220745087 
1646	 0.384680807590485 
1647	 0.384636163711548 
1648	 0.384554773569107 
1649	 0.384455651044846 
1650	 0.38435372710228 
1651	 0.384229630231857 
1652	 0.384136646986008 
1653	 0.384057730436325 
1654	 0.383972585201263 
1655	 0.383920669555664 
1656	 0.383815199136734 
1657	 0.383656442165375 
1658	 0.383554428815842 
1659	 0.383431106805801 
1660	 0.383332848548889 
1661	 0.383336961269379 
1662	 0.383243948221207 
1663	 0.383062213659287 
1664	 0.38296166062355 
1665	 0.382860034704208 
1666	 0.382727414369583 
1667	 0.382707297801971 
1668	 0.382648348808289 
1669	 0.382521241903305 
1670	 0.382482945919037 
1671	 0.382445365190506 
1672	 0.382343620061874 
1673	 0.382274240255356 
1674	 0.38213524222374 
1675	 0.381904482841492 
1676	 0.381743133068085 
1677	 0.38160103559494 
1678	 0.381491661071777 
1679	 0.381467461585999 
1680	 0.381399869918823 
1681	 0.381332725286484 
1682	 0.381290197372437 
1683	 0.381229072809219 
1684	 0.381186455488205 
1685	 0.381109207868576 
1686	 0.381067097187042 
1687	 0.381002634763718 
1688	 0.38086149096489 
1689	 0.380802690982819 
1690	 0.380689263343811 
1691	 0.380526453256607 
1692	 0.380452811717987 
1693	 0.380335777997971 
1694	 0.380182862281799 
1695	 0.380069583654404 
1696	 0.379969984292984 
1697	 0.379927724599838 
1698	 0.379901587963104 
1699	 0.379843562841415 
1700	 0.379805505275726 
1701	 0.379711031913757 
1702	 0.379595249891281 
1703	 0.379542291164398 
1704	 0.379427552223206 
1705	 0.379275470972061 
1706	 0.379189968109131 
1707	 0.379108250141144 
1708	 0.379011034965515 
1709	 0.378929227590561 
1710	 0.378830522298813 
1711	 0.378720879554749 
1712	 0.378675639629364 
1713	 0.378644049167633 
1714	 0.378563046455383 
1715	 0.378458380699158 
1716	 0.378292977809906 
1717	 0.378133177757263 
1718	 0.378000438213348 
1719	 0.377832144498825 
1720	 0.377668291330338 
1721	 0.377535909414291 
1722	 0.377435803413391 
1723	 0.377370029687881 
1724	 0.377344369888306 
1725	 0.377260029315948 
1726	 0.37709379196167 
1727	 0.37695237994194 
1728	 0.376780241727829 
1729	 0.376633375883102 
1730	 0.376508116722107 
1731	 0.376351654529572 
1732	 0.376173108816147 
1733	 0.376017659902573 
1734	 0.375878572463989 
1735	 0.375729501247406 
1736	 0.375557065010071 
1737	 0.375411719083786 
1738	 0.375273883342743 
1739	 0.375134259462357 
1740	 0.375034958124161 
1741	 0.374858319759369 
1742	 0.374611705541611 
1743	 0.374425768852234 
1744	 0.374282419681549 
1745	 0.374141037464142 
1746	 0.374058455228806 
1747	 0.373956263065338 
1748	 0.37375608086586 
1749	 0.373575627803802 
1750	 0.373458236455917 
1751	 0.373294085264206 
1752	 0.37312176823616 
1753	 0.37298509478569 
1754	 0.372744351625443 
1755	 0.372484892606735 
1756	 0.372301369905472 
1757	 0.372058480978012 
1758	 0.371820002794266 
1759	 0.371665954589844 
1760	 0.371528178453445 
1761	 0.371398687362671 
1762	 0.371285051107407 
1763	 0.371118187904358 
1764	 0.370887756347656 
1765	 0.370722502470016 
1766	 0.370589286088943 
1767	 0.370461493730545 
1768	 0.370381534099579 
1769	 0.370219349861145 
1770	 0.37003630399704 
1771	 0.369945377111435 
1772	 0.369880497455597 
1773	 0.369841933250427 
1774	 0.369806200265884 
1775	 0.369699835777283 
1776	 0.36951932311058 
1777	 0.369308054447174 
1778	 0.369175642728806 
1779	 0.369100153446198 
1780	 0.369046956300735 
1781	 0.369038105010986 
1782	 0.369002044200897 
1783	 0.368912667036057 
1784	 0.368839859962463 
1785	 0.368716299533844 
1786	 0.368593722581863 
1787	 0.368499279022217 
1788	 0.368361264467239 
1789	 0.368243515491486 
1790	 0.368142008781433 
1791	 0.368060559034348 
1792	 0.368001043796539 
1793	 0.367889821529388 
1794	 0.367782086133957 
1795	 0.367688775062561 
1796	 0.367579996585846 
1797	 0.367479056119919 
1798	 0.367398470640183 
1799	 0.36728897690773 
1800	 0.367133677005768 
1801	 0.367062568664551 
1802	 0.367008566856384 
1803	 0.366898477077484 
1804	 0.36682915687561 
1805	 0.366723567247391 
1806	 0.366521626710892 
1807	 0.366352260112762 
1808	 0.366245031356812 
1809	 0.366105735301971 
1810	 0.366007089614868 
1811	 0.365857809782028 
1812	 0.365671932697296 
1813	 0.365462630987167 
1814	 0.365241289138794 
1815	 0.365093141794205 
1816	 0.364986330270767 
1817	 0.364823132753372 
1818	 0.36467432975769 
1819	 0.364499628543854 
1820	 0.364256471395493 
1821	 0.364017933607101 
1822	 0.363772302865982 
1823	 0.363512456417084 
1824	 0.363261491060257 
1825	 0.362998336553574 
1826	 0.36272069811821 
1827	 0.362371414899826 
1828	 0.362005591392517 
1829	 0.361710548400879 
1830	 0.361405104398727 
1831	 0.371389120817184 
1832	 0.371184766292572 
1833	 0.370893597602844 
1834	 0.370500862598419 
1835	 0.370266377925873 
1836	 0.370078921318054 
1837	 0.369860410690308 
1838	 0.369682431221008 
1839	 0.369604527950287 
1840	 0.369418919086456 
1841	 0.369212806224823 
1842	 0.369046360254288 
1843	 0.36888787150383 
1844	 0.368776857852936 
1845	 0.368682652711868 
1846	 0.368622690439224 
1847	 0.368616253137589 
1848	 0.368630051612854 
1849	 0.368610292673111 
1850	 0.36855810880661 
1851	 0.36858668923378 
1852	 0.368628323078156 
1853	 0.368636876344681 
1854	 0.368723332881927 
1855	 0.368768960237503 
1856	 0.368803858757019 
1857	 0.368790358304977 
1858	 0.368788927793503 
1859	 0.368712514638901 
1860	 0.36855760216713 
1861	 0.368373185396194 
1862	 0.368093311786652 
1863	 0.367800712585449 
1864	 0.367535769939423 
1865	 0.367242813110352 
1866	 0.366942435503006 
1867	 0.366658002138138 
1868	 0.366335570812225 
1869	 0.365989416837692 
1870	 0.365652978420258 
1871	 0.365203529596329 
1872	 0.36471101641655 
1873	 0.364262342453003 
1874	 0.363616675138474 
1875	 0.362803727388382 
1876	 0.362003684043884 
1877	 0.361171692609787 
1878	 0.360224336385727 
1879	 0.359282493591309 
1880	 0.358356952667236 
1881	 0.357328623533249 
1882	 0.356168657541275 
1883	 0.354881316423416 
1884	 0.353579670190811 
1885	 0.352309674024582 
1886	 0.351027518510818 
1887	 0.349683433771133 
1888	 0.348253220319748 
1889	 0.346759557723999 
1890	 0.345205068588257 
1891	 0.343635231256485 
1892	 0.342008024454117 
1893	 0.340317130088806 
1894	 0.338541239500046 
1895	 0.336628526449203 
1896	 0.334764003753662 
1897	 0.333020895719528 
1898	 0.331280052661896 
1899	 0.329479962587357 
1900	 0.327664703130722 
1901	 0.325810700654984 
1902	 0.324040830135345 
1903	 0.322434902191162 
1904	 0.321077555418015 
1905	 0.319849163293839 
1906	 0.318628668785095 
1907	 0.317455172538757 
1908	 0.316345006227493 
1909	 0.315380841493607 
1910	 0.314539909362793 
1911	 0.313820064067841 
1912	 0.313232988119125 
1913	 0.312764942646027 
1914	 0.312316328287125 
1915	 0.311960697174072 
1916	 0.31165874004364 
1917	 0.31144717335701 
1918	 0.31135755777359 
1919	 0.311255663633347 
1920	 0.311161547899246 
1921	 0.311128944158554 
1922	 0.311081856489182 
1923	 0.311034500598907 
1924	 0.310972362756729 
1925	 0.310929507017136 
1926	 0.31087926030159 
1927	 0.310805290937424 
1928	 0.310813367366791 
1929	 0.310843944549561 
1930	 0.310816496610641 
1931	 0.310878455638886 
1932	 0.310896575450897 
1933	 0.310892373323441 
1934	 0.310852944850922 
1935	 0.310928255319595 
1936	 0.310998052358627 
1937	 0.311133056879044 
1938	 0.311353921890259 
1939	 0.311490178108215 
1940	 0.311584800481796 
1941	 0.311661720275879 
1942	 0.311775773763657 
1943	 0.311947584152222 
1944	 0.312074482440948 
1945	 0.312185496091843 
1946	 0.312284857034683 
1947	 0.312355607748032 
1948	 0.312449485063553 
1949	 0.312533736228943 
1950	 0.3126540184021 
1951	 0.31279319524765 
1952	 0.312903434038162 
1953	 0.31304532289505 
1954	 0.313191175460815 
1955	 0.313333034515381 
1956	 0.313477337360382 
1957	 0.313632965087891 
1958	 0.313802868127823 
1959	 0.313951939344406 
1960	 0.314092934131622 
1961	 0.314253509044647 
1962	 0.314384430646896 
1963	 0.314561873674393 
1964	 0.314800024032593 
1965	 0.315037578344345 
1966	 0.315260976552963 
1967	 0.315400362014771 
1968	 0.315563946962357 
1969	 0.315665572881699 
1970	 0.315849930047989 
1971	 0.316111028194427 
1972	 0.316332846879959 
1973	 0.31659597158432 
1974	 0.316763013601303 
1975	 0.316900670528412 
1976	 0.317047297954559 
1977	 0.317230433225632 
1978	 0.317499727010727 
1979	 0.317779302597046 
1980	 0.318077564239502 
1981	 0.318360418081284 
1982	 0.318624526262283 
1983	 0.318888515233994 
1984	 0.319156765937805 
1985	 0.319421291351318 
1986	 0.319687634706497 
1987	 0.319952398538589 
1988	 0.320167005062103 
1989	 0.320404946804047 
1990	 0.320615530014038 
1991	 0.320857048034668 
1992	 0.321160793304443 
1993	 0.321430563926697 
1994	 0.32165914773941 
1995	 0.321794718503952 
1996	 0.322048991918564 
1997	 0.322346061468124 
1998	 0.322630107402802 
1999	 0.322989612817764 
2000	 0.323315054178238 
2001	 0.323558837175369 
2002	 0.323831558227539 
2003	 0.324109882116318 
2004	 0.324418604373932 
2005	 0.324742555618286 
2006	 0.324955999851227 
2007	 0.325190722942352 
2008	 0.32538366317749 
2009	 0.325636565685272 
2010	 0.325961083173752 
2011	 0.326176881790161 
2012	 0.326329708099365 
2013	 0.326544106006622 
2014	 0.326757699251175 
2015	 0.32689893245697 
2016	 0.327178359031677 
2017	 0.327425748109818 
2018	 0.327569574117661 
2019	 0.327770620584488 
2020	 0.327993243932724 
2021	 0.328297078609467 
2022	 0.328461974859238 
2023	 0.32855087518692 
2024	 0.328704297542572 
2025	 0.328789621591568 
2026	 0.328913599252701 
2027	 0.329108506441116 
2028	 0.329324901103973 
2029	 0.329397320747375 
2030	 0.329445123672485 
2031	 0.329594612121582 
2032	 0.329722374677658 
2033	 0.329875111579895 
2034	 0.330108195543289 
2035	 0.330247700214386 
2036	 0.330313414335251 
2037	 0.330402970314026 
2038	 0.330483287572861 
2039	 0.330533504486084 
2040	 0.330551445484161 
2041	 0.330599725246429 
2042	 0.330645084381104 
2043	 0.330678522586823 
2044	 0.330750554800034 
2045	 0.330782204866409 
2046	 0.3308045566082 
2047	 0.330879986286163 
2048	 0.330928981304169 
2049	 0.330993086099625 
2050	 0.331039577722549 
2051	 0.331067651510239 
2052	 0.331073403358459 
2053	 0.331039607524872 
2054	 0.331063210964203 
2055	 0.331121742725372 
2056	 0.331151902675629 
2057	 0.331215232610703 
2058	 0.331226855516434 
2059	 0.331231385469437 
2060	 0.331250429153442 
2061	 0.331268519163132 
2062	 0.331320345401764 
2063	 0.331343114376068 
2064	 0.331277102231979 
2065	 0.331228911876678 
2066	 0.3312007188797 
2067	 0.331105560064316 
2068	 0.330943495035172 
2069	 0.330792486667633 
2070	 0.330636560916901 
2071	 0.330421030521393 
2072	 0.330132246017456 
2073	 0.329935073852539 
2074	 0.32975235581398 
2075	 0.329386860132217 
2076	 0.328993827104568 
2077	 0.328691959381104 
2078	 0.3282810151577 
2079	 0.327828615903854 
2080	 0.327356398105621 
2081	 0.326893240213394 
2082	 0.326368600130081 
2083	 0.325776994228363 
2084	 0.325160712003708 
2085	 0.324614703655243 
2086	 0.323845684528351 
2087	 0.322898805141449 
2088	 0.321991622447968 
2089	 0.320970863103867 
2090	 0.319904327392578 
2091	 0.31900680065155 
2092	 0.318065047264099 
2093	 0.317049562931061 
2094	 0.316004425287247 
2095	 0.314849972724915 
2096	 0.313684910535812 
2097	 0.312577396631241 
2098	 0.311532109975815 
2099	 0.310396462678909 
2100	 0.309222549200058 
2101	 0.308094501495361 
2102	 0.306857734918594 
2103	 0.305769979953766 
2104	 0.304824680089951 
2105	 0.303845763206482 
2106	 0.30286979675293 
2107	 0.30198347568512 
2108	 0.301135092973709 
2109	 0.300305396318436 
2110	 0.299505442380905 
2111	 0.298710584640503 
2112	 0.297941833734512 
2113	 0.297229140996933 
2114	 0.296573877334595 
2115	 0.296023339033127 
2116	 0.295453101396561 
2117	 0.29486021399498 
2118	 0.294380486011505 
2119	 0.293915659189224 
2120	 0.293603241443634 
2121	 0.293484181165695 
2122	 0.293311953544617 
2123	 0.29314649105072 
2124	 0.2931028008461 
2125	 0.293142586946487 
2126	 0.293170750141144 
2127	 0.29325196146965 
2128	 0.293378204107285 
2129	 0.293437004089355 
2130	 0.29347237944603 
2131	 0.293548583984375 
2132	 0.293572902679443 
2133	 0.293497890233994 
2134	 0.293305993080139 
2135	 0.293121427297592 
2136	 0.292902499437332 
2137	 0.292635589838028 
2138	 0.292378753423691 
2139	 0.291958302259445 
2140	 0.291451007127762 
2141	 0.290835916996002 
2142	 0.290099322795868 
2143	 0.28928205370903 
2144	 0.28834855556488 
2145	 0.287375271320343 
2146	 0.286316782236099 
2147	 0.28515687584877 
2148	 0.283957690000534 
2149	 0.282661586999893 
2150	 0.28123539686203 
2151	 0.279774010181427 
2152	 0.278240233659744 
2153	 0.276657938957214 
2154	 0.274942427873611 
2155	 0.273187339305878 
2156	 0.271211117506027 
2157	 0.269047915935516 
2158	 0.266838014125824 
2159	 0.264480233192444 
2160	 0.262028008699417 
2161	 0.259550303220749 
2162	 0.256883859634399 
2163	 0.254070639610291 
2164	 0.251098930835724 
2165	 0.247945532202721 
2166	 0.244615539908409 
2167	 0.241089642047882 
2168	 0.237515926361084 
2169	 0.233891606330872 
2170	 0.229979783296585 
2171	 0.225973546504974 
2172	 0.221870765089989 
2173	 0.217548102140427 
2174	 0.212970718741417 
2175	 0.208465754985809 
2176	 0.203774943947792 
2177	 0.199142456054688 
2178	 0.194562003016472 
2179	 0.189889088273048 
2180	 0.184963375329971 
2181	 0.180348113179207 
2182	 0.175837799906731 
2183	 0.171388939023018 
2184	 0.167016923427582 
2185	 0.162861302495003 
2186	 0.158755004405975 
2187	 0.154787972569466 
2188	 0.151266321539879 
2189	 0.14821919798851 
2190	 0.145307287573814 
2191	 0.142575159668922 
2192	 0.140183568000793 
2193	 0.138016954064369 
2194	 0.136247575283051 
2195	 0.134946450591087 
2196	 0.133795380592346 
2197	 0.132874920964241 
2198	 0.132327869534492 
2199	 0.132070317864418 
2200	 0.132157564163208 
2201	 0.132699459791183 
2202	 0.133370578289032 
2203	 0.134318739175797 
2204	 0.135511681437492 
2205	 0.136984020471573 
2206	 0.138606920838356 
2207	 0.140465348958969 
2208	 0.14252582192421 
2209	 0.144799962639809 
2210	 0.147203668951988 
2211	 0.149799540638924 
2212	 0.152651980519295 
2213	 0.155473440885544 
2214	 0.158442720770836 
2215	 0.161639958620071 
2216	 0.164813950657845 
2217	 0.168004706501961 
2218	 0.171249493956566 
2219	 0.174510404467583 
2220	 0.177762806415558 
2221	 0.180920228362083 
2222	 0.184064924716949 
2223	 0.187027037143707 
2224	 0.189804270863533 
2225	 0.192482382059097 
2226	 0.195115968585014 
2227	 0.197534397244453 
2228	 0.199708804488182 
2229	 0.201912432909012 
2230	 0.204025223851204 
2231	 0.206019431352615 
2232	 0.207989126443863 
2233	 0.209799483418465 
2234	 0.211383849382401 
2235	 0.212986528873444 
2236	 0.214559063315392 
2237	 0.21599081158638 
2238	 0.217304065823555 
2239	 0.218601942062378 
2240	 0.219860151410103 
2241	 0.221081480383873 
2242	 0.222339019179344 
2243	 0.223469808697701 
2244	 0.224418371915817 
2245	 0.22540020942688 
2246	 0.226396888494492 
2247	 0.227313801646233 
2248	 0.228137493133545 
2249	 0.228861644864082 
2250	 0.229569330811501 
2251	 0.230295538902283 
2252	 0.230995208024979 
2253	 0.231728807091713 
2254	 0.232393398880959 
2255	 0.232957795262337 
2256	 0.233573764562607 
2257	 0.234226360917091 
2258	 0.234816983342171 
2259	 0.235434994101524 
2260	 0.235980853438377 
2261	 0.236429989337921 
2262	 0.23687107861042 
2263	 0.237331748008728 
2264	 0.2376659065485 
2265	 0.237880259752274 
2266	 0.238158077001572 
2267	 0.238407865166664 
2268	 0.238561779260635 
2269	 0.238728165626526 
2270	 0.238854438066483 
2271	 0.238906428217888 
2272	 0.238843083381653 
2273	 0.238871246576309 
2274	 0.238875165581703 
2275	 0.238756313920021 
2276	 0.238684087991714 
2277	 0.238576173782349 
2278	 0.238318786025047 
2279	 0.237918809056282 
2280	 0.237523779273033 
2281	 0.23725737631321 
2282	 0.236806407570839 
2283	 0.236200392246246 
2284	 0.235676050186157 
2285	 0.234991103410721 
2286	 0.23423258960247 
2287	 0.233614340424538 
2288	 0.232899338006973 
2289	 0.231971859931946 
2290	 0.230975046753883 
2291	 0.230085104703903 
2292	 0.229272067546844 
2293	 0.228251248598099 
2294	 0.227208226919174 
2295	 0.226066946983337 
2296	 0.224788010120392 
2297	 0.22340814769268 
2298	 0.221935912966728 
2299	 0.220500811934471 
2300	 0.218885093927383 
2301	 0.217327728867531 
2302	 0.21590930223465 
2303	 0.214334428310394 
2304	 0.212648466229439 
2305	 0.210962325334549 
2306	 0.209230720996857 
2307	 0.207466155290604 
2308	 0.205605149269104 
2309	 0.203839763998985 
2310	 0.202085942029953 
2311	 0.200334295630455 
2312	 0.198735609650612 
2313	 0.196948274970055 
2314	 0.195011928677559 
2315	 0.193162351846695 
2316	 0.191290840506554 
2317	 0.189325854182243 
2318	 0.187587022781372 
2319	 0.185717836022377 
2320	 0.183829873800278 
2321	 0.182007342576981 
2322	 0.179922521114349 
2323	 0.177962198853493 
2324	 0.176247909665108 
2325	 0.17453832924366 
2326	 0.172928556799889 
2327	 0.171212896704674 
2328	 0.169462352991104 
2329	 0.167788609862328 
2330	 0.165991276502609 
2331	 0.164317160844803 
2332	 0.162596479058266 
2333	 0.160816013813019 
2334	 0.159552976489067 
2335	 0.158459141850471 
2336	 0.157101467251778 
2337	 0.155816838145256 
2338	 0.154644772410393 
2339	 0.153435692191124 
2340	 0.152546435594559 
2341	 0.151893839240074 
2342	 0.151094973087311 
2343	 0.15031436085701 
2344	 0.149708539247513 
2345	 0.14905047416687 
2346	 0.148373708128929 
2347	 0.148091018199921 
2348	 0.148041620850563 
2349	 0.148066028952599 
2350	 0.148196652531624 
2351	 0.148628890514374 
2352	 0.148885458707809 
2353	 0.148981988430023 
2354	 0.14944314956665 
2355	 0.150203421711922 
2356	 0.150693461298943 
2357	 0.151218056678772 
2358	 0.151831850409508 
2359	 0.152251556515694 
2360	 0.152846857905388 
2361	 0.153898313641548 
2362	 0.154428318142891 
2363	 0.154631376266479 
2364	 0.155065685510635 
2365	 0.155321940779686 
2366	 0.155695706605911 
2367	 0.156403869390488 
2368	 0.15663406252861 
2369	 0.156556263566017 
2370	 0.156652107834816 
2371	 0.156540676951408 
2372	 0.156635716557503 
2373	 0.157098144292831 
2374	 0.157114192843437 
2375	 0.156869783997536 
2376	 0.156759664416313 
2377	 0.156440064311028 
2378	 0.156293094158173 
2379	 0.156358987092972 
2380	 0.156259849667549 
2381	 0.156026154756546 
2382	 0.155935198068619 
2383	 0.155882865190506 
2384	 0.155875489115715 
2385	 0.156097993254662 
2386	 0.156032547354698 
2387	 0.155776113271713 
2388	 0.155619874596596 
2389	 0.155291527509689 
2390	 0.155154332518578 
2391	 0.15523374080658 
2392	 0.155128285288811 
2393	 0.155041038990021 
2394	 0.154833510518074 
2395	 0.154506176710129 
2396	 0.154200553894043 
2397	 0.15385989844799 
2398	 0.153434336185455 
2399	 0.152905464172363 
2400	 0.152476325631142 
2401	 0.152000561356544 
2402	 0.151542335748672 
2403	 0.151246696710587 
2404	 0.150711432099342 
2405	 0.150043785572052 
2406	 0.149419978260994 
2407	 0.148697152733803 
2408	 0.147865876555443 
2409	 0.147057443857193 
2410	 0.14613738656044 
2411	 0.144912734627724 
2412	 0.144091427326202 
2413	 0.143454566597939 
2414	 0.142587646842003 
2415	 0.141835436224937 
2416	 0.141019448637962 
2417	 0.140025913715363 
2418	 0.139107376337051 
2419	 0.138299211859703 
2420	 0.137349367141724 
2421	 0.136139452457428 
2422	 0.135317951440811 
2423	 0.13470371067524 
2424	 0.134056806564331 
2425	 0.133641436696053 
2426	 0.132979482412338 
2427	 0.132295921444893 
2428	 0.131396025419235 
2429	 0.130143612623215 
2430	 0.129339307546616 
2431	 0.128504514694214 
2432	 0.127898767590523 
2433	 0.127785548567772 
2434	 0.127378672361374 
2435	 0.126842096447945 
2436	 0.126390665769577 
2437	 0.125894621014595 
2438	 0.12563456594944 
2439	 0.125521898269653 
2440	 0.125378236174583 
2441	 0.125358179211617 
2442	 0.125346094369888 
2443	 0.125260666012764 
2444	 0.125411227345467 
2445	 0.125767707824707 
2446	 0.12613470852375 
2447	 0.12659378349781 
2448	 0.127082228660583 
2449	 0.127760052680969 
2450	 0.128018096089363 
2451	 0.128118425607681 
2452	 0.128306582570076 
2453	 0.12830263376236 
2454	 0.127934724092484 
2455	 0.128237023949623 
2456	 0.128848105669022 
2457	 0.128932014107704 
2458	 0.129347264766693 
2459	 0.129654109477997 
2460	 0.129522308707237 
2461	 0.130042836070061 
2462	 0.130889549851418 
2463	 0.131356105208397 
2464	 0.1316859126091 
2465	 0.13213874399662 
2466	 0.132856413722038 
2467	 0.133257940411568 
2468	 0.133270487189293 
2469	 0.133619979023933 
2470	 0.134135439991951 
2471	 0.134346857666969 
2472	 0.134630113840103 
2473	 0.134947508573532 
2474	 0.13489243388176 
2475	 0.134965792298317 
2476	 0.135199218988419 
2477	 0.135552957653999 
2478	 0.136093020439148 
2479	 0.136300355195999 
2480	 0.136495232582092 
2481	 0.136721238493919 
2482	 0.136607587337494 
2483	 0.136597841978073 
2484	 0.136907696723938 
2485	 0.136929005384445 
2486	 0.136281087994576 
2487	 0.136518597602844 
2488	 0.137405395507813 
2489	 0.137820795178413 
2490	 0.138707727193832 
2491	 0.139041692018509 
2492	 0.138483628630638 
2493	 0.13863268494606 
2494	 0.13925176858902 
2495	 0.139300316572189 
2496	 0.139212340116501 
2497	 0.139211863279343 
2498	 0.138712450861931 
2499	 0.138819113373756 
2500	 0.139221146702766 
