
Text conversion of header file \A_MEDIDAS\PROJETOS\BRASIL\BLOCO GAVIAO\JACOBINA\CANIF27\sco\CANIF27_008.46_00001.asd.ref
 -------------------------------------------------------------
Intemperizada                                                                                                                                               
The instrument number was  16586/1
New ASD spectrum file: Program version = 6.00 file version = 1.00
Spectrum saved: 10/16/2018 at 09:58:20
VNIR integration time : 34
VNIR channel 1 wavelength = 350 wavelength step = 1
There were 50 samples per data value
xmin = 350 xmax= 2500
ymin= 0 ymax= 1.25
The instrument digitizes spectral values to 16 bits
SWIR1 gain was 214 offset was 2097
SWIR2 gain was 513 offset was 2267
Join between VNIR and SWIR1 was 1000 nm
Join between SWIR1 and SWIR2 was 1830 nm
Absolute Reflectance is Enabled
The Absolute Reflectance File is abs165861.ref
VNIR dark signal subtracted
50 dark measurements taken Tue Oct 16 09:52:54 2018
DCC value was 0
Data is compared to a white reference:
60 white reference measurements taken Tue Oct 16 09:53:02 2018
There was no foreoptic attached
Spectrum file is reflectance data
GPS-Latitude is S0
GPS-Longitude is E0
GPS-Altitude is 0
GPS-UTC is Wed Dec 31 17:00:00 1969

Smart Detector
Serial#  0
Signal (A)  0.000E00
Dark (A)  0.000E00
Ref (A)  0.000E00
Status  0 - Uninitialized
Gain  E-4
Averaging  0
Temp (C)  0.0
Humid (%)  0.0

Reflectance Absolute
Wavelength	CANIF27_8.46_00001.asd.ref
350	 0.158116802573204 
351	 0.154210597276688 
352	 0.152259007096291 
353	 0.154107481241226 
354	 0.157721266150475 
355	 0.153409108519554 
356	 0.162846729159355 
357	 0.17058476805687 
358	 0.159591570496559 
359	 0.156754121184349 
360	 0.160996183753014 
361	 0.164996489882469 
362	 0.160159736871719 
363	 0.155067563056946 
364	 0.155994474887848 
365	 0.162358269095421 
366	 0.165423318743706 
367	 0.163015782833099 
368	 0.159594789147377 
369	 0.159463360905647 
370	 0.161552533507347 
371	 0.164252206683159 
372	 0.165210202336311 
373	 0.162907049059868 
374	 0.162322476506233 
375	 0.163901939988136 
376	 0.166463851928711 
377	 0.167809695005417 
378	 0.168300032615662 
379	 0.167868033051491 
380	 0.167023986577988 
381	 0.167608827352524 
382	 0.169027209281921 
383	 0.170322626829147 
384	 0.170914456248283 
385	 0.173149555921555 
386	 0.17367359995842 
387	 0.172949314117432 
388	 0.174721360206604 
389	 0.175370901823044 
390	 0.176137879490852 
391	 0.177733078598976 
392	 0.178222388029099 
393	 0.178130581974983 
394	 0.178222060203552 
395	 0.178949356079102 
396	 0.178590878844261 
397	 0.180256709456444 
398	 0.183036237955093 
399	 0.183170035481453 
400	 0.183263927698135 
401	 0.183530777692795 
402	 0.183889463543892 
403	 0.184339016675949 
404	 0.184849664568901 
405	 0.18614886701107 
406	 0.188150748610497 
407	 0.186525031924248 
408	 0.187166064977646 
409	 0.189624413847923 
410	 0.189428225159645 
411	 0.189928382635117 
412	 0.190407410264015 
413	 0.190696477890015 
414	 0.192304149270058 
415	 0.19340343773365 
416	 0.193930238485336 
417	 0.194355845451355 
418	 0.195126205682755 
419	 0.195865795016289 
420	 0.196686670184135 
421	 0.197963714599609 
422	 0.199500933289528 
423	 0.200926780700684 
424	 0.201856568455696 
425	 0.20184263586998 
426	 0.202937483787537 
427	 0.204485177993774 
428	 0.205486506223679 
429	 0.206500127911568 
430	 0.207583218812943 
431	 0.208741128444672 
432	 0.209888681769371 
433	 0.210263833403587 
434	 0.211282044649124 
435	 0.213284328579903 
436	 0.214738771319389 
437	 0.215224385261536 
438	 0.216000229120255 
439	 0.21800109744072 
440	 0.219293415546417 
441	 0.220283940434456 
442	 0.221118107438087 
443	 0.221778318285942 
444	 0.22271029651165 
445	 0.223706856369972 
446	 0.224639430642128 
447	 0.225669473409653 
448	 0.226320371031761 
449	 0.226795464754105 
450	 0.227421060204506 
451	 0.228155001997948 
452	 0.228767707943916 
453	 0.22928661108017 
454	 0.229919999837875 
455	 0.23058520257473 
456	 0.231254518032074 
457	 0.231927096843719 
458	 0.232645198702812 
459	 0.233289644122124 
460	 0.233880609273911 
461	 0.234484776854515 
462	 0.235123589634895 
463	 0.235877141356468 
464	 0.236638888716698 
465	 0.237154260277748 
466	 0.237596243619919 
467	 0.238189786672592 
468	 0.238968580961227 
469	 0.239512920379639 
470	 0.240244850516319 
471	 0.241003185510635 
472	 0.24149015545845 
473	 0.242017239332199 
474	 0.242719531059265 
475	 0.243551462888718 
476	 0.244294136762619 
477	 0.245061725378036 
478	 0.245879247784615 
479	 0.246703132987022 
480	 0.247320652008057 
481	 0.248120918869972 
482	 0.249032258987427 
483	 0.249790295958519 
484	 0.250598698854446 
485	 0.251404464244843 
486	 0.252211660146713 
487	 0.253131091594696 
488	 0.253986150026321 
489	 0.254768192768097 
490	 0.255519568920136 
491	 0.25629135966301 
492	 0.257005095481873 
493	 0.257581859827042 
494	 0.257986754179001 
495	 0.258535176515579 
496	 0.259337842464447 
497	 0.260292649269104 
498	 0.261003196239471 
499	 0.261811524629593 
500	 0.262652009725571 
501	 0.263421773910522 
502	 0.264429032802582 
503	 0.26527139544487 
504	 0.265916496515274 
505	 0.266649723052979 
506	 0.267544448375702 
507	 0.268400400876999 
508	 0.269093722105026 
509	 0.269746005535126 
510	 0.27046349644661 
511	 0.271148264408112 
512	 0.271700263023376 
513	 0.272503674030304 
514	 0.273227423429489 
515	 0.273802071809769 
516	 0.274458438158035 
517	 0.274990439414978 
518	 0.275457143783569 
519	 0.275953710079193 
520	 0.276535123586655 
521	 0.277056604623795 
522	 0.277523577213287 
523	 0.278005063533783 
524	 0.278450936079025 
525	 0.278847366571426 
526	 0.279217511415482 
527	 0.279623657464981 
528	 0.280051618814468 
529	 0.280493795871735 
530	 0.280939519405365 
531	 0.281372338533401 
532	 0.28178134560585 
533	 0.282152950763702 
534	 0.282485574483871 
535	 0.282912373542786 
536	 0.283326745033264 
537	 0.283687084913254 
538	 0.284114837646484 
539	 0.284578770399094 
540	 0.285019278526306 
541	 0.285407572984695 
542	 0.285901814699173 
543	 0.286383837461472 
544	 0.286838233470917 
545	 0.287334352731705 
546	 0.287691444158554 
547	 0.288038551807404 
548	 0.288450121879578 
549	 0.288748055696487 
550	 0.289168149232864 
551	 0.289657473564148 
552	 0.290061950683594 
553	 0.290368884801865 
554	 0.290630698204041 
555	 0.29086834192276 
556	 0.291065394878387 
557	 0.2914137840271 
558	 0.291798889636993 
559	 0.292134433984756 
560	 0.292631983757019 
561	 0.293046176433563 
562	 0.293315500020981 
563	 0.29350021481514 
564	 0.293762236833572 
565	 0.294047296047211 
566	 0.294303685426712 
567	 0.294519662857056 
568	 0.294622153043747 
569	 0.294645726680756 
570	 0.294633269309998 
571	 0.294519603252411 
572	 0.294430255889893 
573	 0.294426381587982 
574	 0.294521629810333 
575	 0.294799715280533 
576	 0.295110911130905 
577	 0.295338898897171 
578	 0.295486152172089 
579	 0.295693069696426 
580	 0.295844227075577 
581	 0.295787781476974 
582	 0.295606046915054 
583	 0.295492559671402 
584	 0.29542601108551 
585	 0.295203298330307 
586	 0.294945061206818 
587	 0.294799834489822 
588	 0.294876962900162 
589	 0.29523766040802 
590	 0.29547044634819 
591	 0.295534491539001 
592	 0.295531988143921 
593	 0.295361071825027 
594	 0.295166254043579 
595	 0.295044004917145 
596	 0.295011878013611 
597	 0.29486620426178 
598	 0.294612884521484 
599	 0.294287532567978 
600	 0.29384857416153 
601	 0.293416976928711 
602	 0.293073832988739 
603	 0.292830914258957 
604	 0.292399525642395 
605	 0.292115449905396 
606	 0.292096227407455 
607	 0.292104572057724 
608	 0.292040705680847 
609	 0.291877627372742 
610	 0.291656345129013 
611	 0.291539043188095 
612	 0.291350394487381 
613	 0.291059017181396 
614	 0.290731161832809 
615	 0.290419369935989 
616	 0.290184885263443 
617	 0.290006071329117 
618	 0.289737313985825 
619	 0.289492070674896 
620	 0.289226502180099 
621	 0.288909763097763 
622	 0.288717329502106 
623	 0.288561105728149 
624	 0.288366496562958 
625	 0.288086444139481 
626	 0.287800550460815 
627	 0.287524670362473 
628	 0.287272870540619 
629	 0.287081718444824 
630	 0.286795079708099 
631	 0.286489367485046 
632	 0.286275237798691 
633	 0.286082893610001 
634	 0.285796999931335 
635	 0.285474091768265 
636	 0.285286694765091 
637	 0.285080581903458 
638	 0.284850299358368 
639	 0.284603238105774 
640	 0.284325480461121 
641	 0.284017235040665 
642	 0.283785134553909 
643	 0.283673614263535 
644	 0.283286720514297 
645	 0.282947450876236 
646	 0.282716125249863 
647	 0.282428473234177 
648	 0.282213538885117 
649	 0.281985968351364 
650	 0.281706631183624 
651	 0.281488716602325 
652	 0.281244099140167 
653	 0.28098475933075 
654	 0.280743062496185 
655	 0.280491441488266 
656	 0.280227780342102 
657	 0.279949188232422 
658	 0.279660403728485 
659	 0.279477536678314 
660	 0.279325157403946 
661	 0.279118984937668 
662	 0.278814405202866 
663	 0.278489381074905 
664	 0.278241336345673 
665	 0.278120368719101 
666	 0.277982205152512 
667	 0.277709066867828 
668	 0.277378678321838 
669	 0.277191936969757 
670	 0.276982963085175 
671	 0.276708036661148 
672	 0.276409715414047 
673	 0.276248186826706 
674	 0.276029586791992 
675	 0.275777816772461 
676	 0.275568723678589 
677	 0.275416284799576 
678	 0.275206416845322 
679	 0.274961143732071 
680	 0.274782538414001 
681	 0.274594664573669 
682	 0.274369060993195 
683	 0.274119317531586 
684	 0.273909240961075 
685	 0.273755609989166 
686	 0.273631006479263 
687	 0.273495852947235 
688	 0.273319631814957 
689	 0.273136466741562 
690	 0.272959500551224 
691	 0.272796809673309 
692	 0.272716015577316 
693	 0.272620230913162 
694	 0.272476583719254 
695	 0.272346019744873 
696	 0.272229880094528 
697	 0.272162914276123 
698	 0.272125691175461 
699	 0.271939307451248 
700	 0.271801769733429 
701	 0.271769285202026 
702	 0.271802991628647 
703	 0.271712511777878 
704	 0.271668970584869 
705	 0.27167272567749 
706	 0.271568238735199 
707	 0.271528959274292 
708	 0.271504640579224 
709	 0.271458387374878 
710	 0.271445095539093 
711	 0.271456032991409 
712	 0.271457254886627 
713	 0.271428495645523 
714	 0.271432936191559 
715	 0.271434247493744 
716	 0.271441400051117 
717	 0.271490603685379 
718	 0.271591991186142 
719	 0.271686166524887 
720	 0.271739065647125 
721	 0.271759986877441 
722	 0.271798640489578 
723	 0.271922260522842 
724	 0.272100299596787 
725	 0.272040367126465 
726	 0.272078663110733 
727	 0.272241532802582 
728	 0.272416830062866 
729	 0.272469907999039 
730	 0.27259624004364 
731	 0.272778868675232 
732	 0.272841066122055 
733	 0.272915154695511 
734	 0.273077815771103 
735	 0.273311674594879 
736	 0.273475229740143 
737	 0.27373343706131 
738	 0.273894608020782 
739	 0.273860633373261 
740	 0.274047762155533 
741	 0.274251252412796 
742	 0.274456739425659 
743	 0.274709731340408 
744	 0.274925529956818 
745	 0.275106519460678 
746	 0.275272458791733 
747	 0.275453329086304 
748	 0.275679290294647 
749	 0.275841325521469 
750	 0.275975376367569 
751	 0.276360630989075 
752	 0.276626020669937 
753	 0.276827067136765 
754	 0.277062833309174 
755	 0.277215927839279 
756	 0.277503579854965 
757	 0.277860462665558 
758	 0.278116881847382 
759	 0.278237849473953 
760	 0.278450518846512 
761	 0.27876552939415 
762	 0.279027372598648 
763	 0.279296696186066 
764	 0.279513210058212 
765	 0.279687374830246 
766	 0.279931753873825 
767	 0.280139803886414 
768	 0.280380070209503 
769	 0.28068071603775 
770	 0.280889987945557 
771	 0.281182467937469 
772	 0.281453132629395 
773	 0.281572222709656 
774	 0.281670749187469 
775	 0.281893700361252 
776	 0.282170683145523 
777	 0.282345682382584 
778	 0.282584547996521 
779	 0.282795011997223 
780	 0.282941281795502 
781	 0.2830610871315 
782	 0.283182114362717 
783	 0.28331333398819 
784	 0.283467710018158 
785	 0.283668547868729 
786	 0.283725798130035 
787	 0.283725023269653 
788	 0.283793300390244 
789	 0.284003734588623 
790	 0.284067630767822 
791	 0.284046024084091 
792	 0.284094631671906 
793	 0.284216821193695 
794	 0.284343659877777 
795	 0.284402579069138 
796	 0.284349828958511 
797	 0.284273743629456 
798	 0.284230917692184 
799	 0.284226775169373 
800	 0.284223109483719 
801	 0.2841916680336 
802	 0.284107059240341 
803	 0.284009367227554 
804	 0.283999532461166 
805	 0.283862829208374 
806	 0.283739238977432 
807	 0.283682018518448 
808	 0.283473908901215 
809	 0.283250570297241 
810	 0.283055543899536 
811	 0.282901465892792 
812	 0.282790839672089 
813	 0.282640963792801 
814	 0.282473504543304 
815	 0.282328754663467 
816	 0.282173126935959 
817	 0.281891614198685 
818	 0.281609505414963 
819	 0.2815001308918 
820	 0.281329780817032 
821	 0.281067073345184 
822	 0.280788064002991 
823	 0.280604898929596 
824	 0.280372560024261 
825	 0.28014400601387 
826	 0.279934853315353 
827	 0.279706209897995 
828	 0.27941420674324 
829	 0.279108673334122 
830	 0.278823763132095 
831	 0.278554916381836 
832	 0.278308302164078 
833	 0.278069138526917 
834	 0.277806490659714 
835	 0.277475446462631 
836	 0.277211725711823 
837	 0.276927769184113 
838	 0.276592761278152 
839	 0.276403367519379 
840	 0.276125282049179 
841	 0.275831520557404 
842	 0.275600045919418 
843	 0.275284737348557 
844	 0.274913847446442 
845	 0.274556428194046 
846	 0.27429074048996 
847	 0.274184703826904 
848	 0.273951649665833 
849	 0.273631870746613 
850	 0.273361444473267 
851	 0.273057132959366 
852	 0.27263206243515 
853	 0.2722048163414 
854	 0.271950900554657 
855	 0.271810978651047 
856	 0.271655410528183 
857	 0.271394729614258 
858	 0.271017521619797 
859	 0.270715713500977 
860	 0.27045202255249 
861	 0.270193248987198 
862	 0.269930988550186 
863	 0.269738674163818 
864	 0.269496589899063 
865	 0.269203513860703 
866	 0.268948405981064 
867	 0.268696933984756 
868	 0.268521547317505 
869	 0.268398344516754 
870	 0.268224507570267 
871	 0.267983466386795 
872	 0.267757147550583 
873	 0.267564475536346 
874	 0.267362922430038 
875	 0.267196714878082 
876	 0.266969978809357 
877	 0.266703456640244 
878	 0.266528159379959 
879	 0.266429245471954 
880	 0.266302973031998 
881	 0.266124188899994 
882	 0.265961617231369 
883	 0.265896767377853 
884	 0.265765279531479 
885	 0.265535295009613 
886	 0.265332162380219 
887	 0.265148878097534 
888	 0.265019208192825 
889	 0.264926910400391 
890	 0.264811784029007 
891	 0.26469412446022 
892	 0.264564216136932 
893	 0.264463812112808 
894	 0.264462232589722 
895	 0.264437645673752 
896	 0.264414608478546 
897	 0.264341115951538 
898	 0.264123380184174 
899	 0.263985931873322 
900	 0.263950884342194 
901	 0.26393187046051 
902	 0.263815224170685 
903	 0.263805329799652 
904	 0.263836592435837 
905	 0.26385623216629 
906	 0.263853162527084 
907	 0.263875007629395 
908	 0.263782858848572 
909	 0.263703137636185 
910	 0.263846695423126 
911	 0.263780027627945 
912	 0.263769328594208 
913	 0.263770550489426 
914	 0.263636499643326 
915	 0.263811022043228 
916	 0.26400363445282 
917	 0.264080464839935 
918	 0.264056921005249 
919	 0.264082431793213 
920	 0.264043211936951 
921	 0.264037877321243 
922	 0.264175921678543 
923	 0.264273375272751 
924	 0.264364004135132 
925	 0.264460027217865 
926	 0.264552175998688 
927	 0.264585494995117 
928	 0.264676421880722 
929	 0.264780431985855 
930	 0.264838874340057 
931	 0.264875054359436 
932	 0.264922767877579 
933	 0.264991849660873 
934	 0.265098035335541 
935	 0.265272587537766 
936	 0.265474647283554 
937	 0.26559242606163 
938	 0.265588909387589 
939	 0.265549838542938 
940	 0.265668094158173 
941	 0.265814900398254 
942	 0.265919923782349 
943	 0.266022861003876 
944	 0.266182243824005 
945	 0.266203224658966 
946	 0.266217172145844 
947	 0.266463458538055 
948	 0.266541033983231 
949	 0.266569554805756 
950	 0.26670178771019 
951	 0.266971081495285 
952	 0.267000794410706 
953	 0.267201453447342 
954	 0.267391949892044 
955	 0.267396628856659 
956	 0.267520278692245 
957	 0.267686754465103 
958	 0.267883121967316 
959	 0.268096268177032 
960	 0.268297076225281 
961	 0.268417865037918 
962	 0.268536150455475 
963	 0.268710911273956 
964	 0.268929272890091 
965	 0.269032716751099 
966	 0.269136071205139 
967	 0.269278645515442 
968	 0.26944175362587 
969	 0.269668251276016 
970	 0.269912570714951 
971	 0.270117431879044 
972	 0.270258277654648 
973	 0.270393043756485 
974	 0.270559817552567 
975	 0.270669758319855 
976	 0.270724952220917 
977	 0.270905375480652 
978	 0.271243870258331 
979	 0.271539956331253 
980	 0.271741151809692 
981	 0.271952927112579 
982	 0.272119969129562 
983	 0.272165775299072 
984	 0.27225536108017 
985	 0.272527426481247 
986	 0.272591799497604 
987	 0.272688537836075 
988	 0.272854089736938 
989	 0.273059993982315 
990	 0.273284554481506 
991	 0.273605555295944 
992	 0.273889094591141 
993	 0.274118572473526 
994	 0.274387061595917 
995	 0.27443328499794 
996	 0.274604231119156 
997	 0.274906843900681 
998	 0.275168180465698 
999	 0.275384515523911 
1000	 0.27576607465744 
1001	 0.267542868852615 
1002	 0.267778426408768 
1003	 0.268063604831696 
1004	 0.268314838409424 
1005	 0.268537551164627 
1006	 0.268740773200989 
1007	 0.26892626285553 
1008	 0.269049465656281 
1009	 0.269270479679108 
1010	 0.269541412591934 
1011	 0.269828617572784 
1012	 0.270226627588272 
1013	 0.270510137081146 
1014	 0.270753294229507 
1015	 0.270980417728424 
1016	 0.271167993545532 
1017	 0.271313339471817 
1018	 0.271465748548508 
1019	 0.271628081798553 
1020	 0.271801620721817 
1021	 0.271930009126663 
1022	 0.272115558385849 
1023	 0.272362679243088 
1024	 0.272584974765778 
1025	 0.272832840681076 
1026	 0.273056477308273 
1027	 0.27327111363411 
1028	 0.273479998111725 
1029	 0.273680955171585 
1030	 0.273856073617935 
1031	 0.274083971977234 
1032	 0.274217158555985 
1033	 0.274296253919601 
1034	 0.274429857730865 
1035	 0.274547845125198 
1036	 0.274656176567078 
1037	 0.274798929691315 
1038	 0.274904012680054 
1039	 0.275007307529449 
1040	 0.275086551904678 
1041	 0.275202065706253 
1042	 0.275300472974777 
1043	 0.275442630052567 
1044	 0.275645911693573 
1045	 0.275767743587494 
1046	 0.275908201932907 
1047	 0.276069343090057 
1048	 0.276104211807251 
1049	 0.276149123907089 
1050	 0.276266753673553 
1051	 0.276358038187027 
1052	 0.276474952697754 
1053	 0.276621878147125 
1054	 0.276712149381638 
1055	 0.276732295751572 
1056	 0.276783168315887 
1057	 0.276839315891266 
1058	 0.276877820491791 
1059	 0.276867270469666 
1060	 0.276923626661301 
1061	 0.277085512876511 
1062	 0.277232736349106 
1063	 0.277354568243027 
1064	 0.277475833892822 
1065	 0.27749764919281 
1066	 0.277490884065628 
1067	 0.277567207813263 
1068	 0.277610629796982 
1069	 0.277655333280563 
1070	 0.277688056230545 
1071	 0.277733147144318 
1072	 0.277760118246078 
1073	 0.277856230735779 
1074	 0.27792027592659 
1075	 0.278023660182953 
1076	 0.278178036212921 
1077	 0.27823880314827 
1078	 0.278337895870209 
1079	 0.278488129377365 
1080	 0.278539478778839 
1081	 0.278692424297333 
1082	 0.278889566659927 
1083	 0.278945595026016 
1084	 0.279040545225143 
1085	 0.27914896607399 
1086	 0.279259294271469 
1087	 0.279340207576752 
1088	 0.279532313346863 
1089	 0.279696315526962 
1090	 0.279761999845505 
1091	 0.27984818816185 
1092	 0.279940634965897 
1093	 0.280020266771317 
1094	 0.280138432979584 
1095	 0.280249297618866 
1096	 0.280341297388077 
1097	 0.280505001544952 
1098	 0.280737161636353 
1099	 0.280953049659729 
1100	 0.281126856803894 
1101	 0.281287908554077 
1102	 0.281413167715073 
1103	 0.281490415334702 
1104	 0.281615227460861 
1105	 0.281804770231247 
1106	 0.281974911689758 
1107	 0.282189458608627 
1108	 0.282370895147324 
1109	 0.282513558864594 
1110	 0.282696574926376 
1111	 0.282844305038452 
1112	 0.283010303974152 
1113	 0.283225834369659 
1114	 0.283447474241257 
1115	 0.283635050058365 
1116	 0.283819019794464 
1117	 0.284014970064163 
1118	 0.284222990274429 
1119	 0.284347206354141 
1120	 0.28448760509491 
1121	 0.284674346446991 
1122	 0.284800350666046 
1123	 0.284959524869919 
1124	 0.285174489021301 
1125	 0.285352021455765 
1126	 0.285535275936127 
1127	 0.285757511854172 
1128	 0.285942107439041 
1129	 0.286152958869934 
1130	 0.286332279443741 
1131	 0.286465793848038 
1132	 0.286691457033157 
1133	 0.286883115768433 
1134	 0.287045210599899 
1135	 0.287193924188614 
1136	 0.287385046482086 
1137	 0.28755596280098 
1138	 0.287732928991318 
1139	 0.287960916757584 
1140	 0.28823110461235 
1141	 0.288476765155792 
1142	 0.28868094086647 
1143	 0.28890073299408 
1144	 0.289127051830292 
1145	 0.289333134889603 
1146	 0.289554059505463 
1147	 0.289771497249603 
1148	 0.289990574121475 
1149	 0.290236622095108 
1150	 0.290487170219421 
1151	 0.290752381086349 
1152	 0.29105418920517 
1153	 0.291349589824677 
1154	 0.291600167751312 
1155	 0.291839748620987 
1156	 0.292105853557587 
1157	 0.292333513498306 
1158	 0.292595088481903 
1159	 0.292912423610687 
1160	 0.293203175067902 
1161	 0.293546259403229 
1162	 0.293907582759857 
1163	 0.294234722852707 
1164	 0.294613033533096 
1165	 0.294986575841904 
1166	 0.295323401689529 
1167	 0.295635432004929 
1168	 0.295976430177689 
1169	 0.296305984258652 
1170	 0.296622544527054 
1171	 0.296967327594757 
1172	 0.297331750392914 
1173	 0.297713816165924 
1174	 0.298097759485245 
1175	 0.298512667417526 
1176	 0.298923760652542 
1177	 0.299270361661911 
1178	 0.299619883298874 
1179	 0.29996532201767 
1180	 0.300316274166107 
1181	 0.300697505474091 
1182	 0.301050961017609 
1183	 0.30141606926918 
1184	 0.301769524812698 
1185	 0.30215659737587 
1186	 0.302570581436157 
1187	 0.302987545728683 
1188	 0.303424179553986 
1189	 0.303882241249084 
1190	 0.304290920495987 
1191	 0.304662376642227 
1192	 0.305062919855118 
1193	 0.305446624755859 
1194	 0.305836498737335 
1195	 0.306237637996674 
1196	 0.306603193283081 
1197	 0.306961596012115 
1198	 0.307306677103043 
1199	 0.307684391736984 
1200	 0.308150798082352 
1201	 0.308590948581696 
1202	 0.309012889862061 
1203	 0.309457063674927 
1204	 0.309883773326874 
1205	 0.310260057449341 
1206	 0.310682624578476 
1207	 0.311152160167694 
1208	 0.311566710472107 
1209	 0.311981350183487 
1210	 0.312378466129303 
1211	 0.312756061553955 
1212	 0.313161730766296 
1213	 0.313558399677277 
1214	 0.313946008682251 
1215	 0.314350724220276 
1216	 0.314775615930557 
1217	 0.315210253000259 
1218	 0.315627455711365 
1219	 0.316058605909348 
1220	 0.31648001074791 
1221	 0.316932708024979 
1222	 0.317436516284943 
1223	 0.317885398864746 
1224	 0.318311631679535 
1225	 0.318745881319046 
1226	 0.319155067205429 
1227	 0.319575995206833 
1228	 0.319988548755646 
1229	 0.320436865091324 
1230	 0.320926010608673 
1231	 0.321397662162781 
1232	 0.321883648633957 
1233	 0.322378098964691 
1234	 0.322824507951736 
1235	 0.323247045278549 
1236	 0.323704808950424 
1237	 0.324207067489624 
1238	 0.324691563844681 
1239	 0.325207859277725 
1240	 0.325656920671463 
1241	 0.326047301292419 
1242	 0.32649028301239 
1243	 0.326918661594391 
1244	 0.327357977628708 
1245	 0.327843874692917 
1246	 0.328307420015335 
1247	 0.328743875026703 
1248	 0.329207092523575 
1249	 0.32963952422142 
1250	 0.330083638429642 
1251	 0.330561548471451 
1252	 0.331001341342926 
1253	 0.331452250480652 
1254	 0.33190980553627 
1255	 0.332363218069077 
1256	 0.332786440849304 
1257	 0.333203613758087 
1258	 0.333682149648666 
1259	 0.334132224321365 
1260	 0.334534496068954 
1261	 0.33500948548317 
1262	 0.335558354854584 
1263	 0.336014151573181 
1264	 0.336457818746567 
1265	 0.336906403303146 
1266	 0.33728814125061 
1267	 0.337710499763489 
1268	 0.338187724351883 
1269	 0.338631898164749 
1270	 0.339064687490463 
1271	 0.339474350214005 
1272	 0.339886337518692 
1273	 0.340319931507111 
1274	 0.340790212154388 
1275	 0.341289043426514 
1276	 0.341772764921188 
1277	 0.342230945825577 
1278	 0.3426353931427 
1279	 0.343041807413101 
1280	 0.343494981527328 
1281	 0.343978404998779 
1282	 0.344448387622833 
1283	 0.344982355833054 
1284	 0.345432490110397 
1285	 0.34583106637001 
1286	 0.346247971057892 
1287	 0.346620142459869 
1288	 0.347009867429733 
1289	 0.347429782152176 
1290	 0.34783610701561 
1291	 0.348227590322495 
1292	 0.348624676465988 
1293	 0.349068582057953 
1294	 0.349450498819351 
1295	 0.349838376045227 
1296	 0.350277304649353 
1297	 0.350644826889038 
1298	 0.35099869966507 
1299	 0.351364821195602 
1300	 0.351722359657288 
1301	 0.352158576250076 
1302	 0.352617412805557 
1303	 0.35305917263031 
1304	 0.353540748357773 
1305	 0.353979855775833 
1306	 0.35435763001442 
1307	 0.354804545640945 
1308	 0.355262279510498 
1309	 0.355757176876068 
1310	 0.356310099363327 
1311	 0.356835424900055 
1312	 0.357367038726807 
1313	 0.357904762029648 
1314	 0.358404338359833 
1315	 0.358980476856232 
1316	 0.359615534543991 
1317	 0.360251694917679 
1318	 0.360881000757217 
1319	 0.361443012952805 
1320	 0.361974775791168 
1321	 0.362490922212601 
1322	 0.363026112318039 
1323	 0.36359429359436 
1324	 0.364112675189972 
1325	 0.364633679389954 
1326	 0.365151286125183 
1327	 0.3656285405159 
1328	 0.366158008575439 
1329	 0.366729080677032 
1330	 0.367256283760071 
1331	 0.367779761552811 
1332	 0.368322461843491 
1333	 0.36886590719223 
1334	 0.369363099336624 
1335	 0.369852811098099 
1336	 0.370341628789902 
1337	 0.370770126581192 
1338	 0.37123641371727 
1339	 0.371773511171341 
1340	 0.372231692075729 
1341	 0.372630208730698 
1342	 0.373055219650269 
1343	 0.373475700616837 
1344	 0.373916387557983 
1345	 0.374406665563583 
1346	 0.374868839979172 
1347	 0.375318437814713 
1348	 0.375731855630875 
1349	 0.376123547554016 
1350	 0.376559615135193 
1351	 0.376925230026245 
1352	 0.377246975898743 
1353	 0.377584218978882 
1354	 0.377897143363953 
1355	 0.378198385238647 
1356	 0.378496080636978 
1357	 0.378808856010437 
1358	 0.379090428352356 
1359	 0.379410117864609 
1360	 0.379797011613846 
1361	 0.380112141370773 
1362	 0.380419820547104 
1363	 0.380690723657608 
1364	 0.380911082029343 
1365	 0.381130248308182 
1366	 0.381331890821457 
1367	 0.381517261266708 
1368	 0.381700843572617 
1369	 0.381850719451904 
1370	 0.3819779753685 
1371	 0.382038474082947 
1372	 0.382039129734039 
1373	 0.381984382867813 
1374	 0.381861627101898 
1375	 0.381671756505966 
1376	 0.381442934274673 
1377	 0.381083607673645 
1378	 0.380559891462326 
1379	 0.379800081253052 
1380	 0.378503650426865 
1381	 0.376917660236359 
1382	 0.374737858772278 
1383	 0.37208417057991 
1384	 0.368941634893417 
1385	 0.365191608667374 
1386	 0.361363410949707 
1387	 0.356808006763458 
1388	 0.352858155965805 
1389	 0.348583847284317 
1390	 0.34523144364357 
1391	 0.342118114233017 
1392	 0.339890658855438 
1393	 0.338344037532806 
1394	 0.337407320737839 
1395	 0.337361574172974 
1396	 0.3375084400177 
1397	 0.338405758142471 
1398	 0.339191943407059 
1399	 0.340261459350586 
1400	 0.341304063796997 
1401	 0.342263102531433 
1402	 0.343152940273285 
1403	 0.343894302845001 
1404	 0.344540566205978 
1405	 0.345111817121506 
1406	 0.345629930496216 
1407	 0.346001535654068 
1408	 0.346341848373413 
1409	 0.346610277891159 
1410	 0.346814274787903 
1411	 0.34711554646492 
1412	 0.347404003143311 
1413	 0.347844690084457 
1414	 0.348289579153061 
1415	 0.348998218774796 
1416	 0.349834650754929 
1417	 0.350909262895584 
1418	 0.352243691682816 
1419	 0.353640973567963 
1420	 0.355283945798874 
1421	 0.356849789619446 
1422	 0.358576983213425 
1423	 0.360118627548218 
1424	 0.361637383699417 
1425	 0.363042682409287 
1426	 0.36439111828804 
1427	 0.36554291844368 
1428	 0.366556733846664 
1429	 0.367485463619232 
1430	 0.36822184920311 
1431	 0.368925243616104 
1432	 0.369540333747864 
1433	 0.370127588510513 
1434	 0.37063068151474 
1435	 0.371106863021851 
1436	 0.371584326028824 
1437	 0.372089266777039 
1438	 0.37256532907486 
1439	 0.373021364212036 
1440	 0.373494476079941 
1441	 0.373989015817642 
1442	 0.374498546123505 
1443	 0.37499862909317 
1444	 0.375546544790268 
1445	 0.376098722219467 
1446	 0.376697152853012 
1447	 0.377358645200729 
1448	 0.378000050783157 
1449	 0.378659546375275 
1450	 0.379310458898544 
1451	 0.379955351352692 
1452	 0.380600571632385 
1453	 0.381255358457565 
1454	 0.381902158260345 
1455	 0.382561355829239 
1456	 0.383186757564545 
1457	 0.383787095546722 
1458	 0.384400129318237 
1459	 0.384988754987717 
1460	 0.385585784912109 
1461	 0.386198103427887 
1462	 0.386810392141342 
1463	 0.387395769357681 
1464	 0.388035535812378 
1465	 0.388726353645325 
1466	 0.389382213354111 
1467	 0.390060186386108 
1468	 0.390710771083832 
1469	 0.391313642263412 
1470	 0.391952276229858 
1471	 0.39260321855545 
1472	 0.393254578113556 
1473	 0.393919140100479 
1474	 0.39458093047142 
1475	 0.395235270261765 
1476	 0.395906329154968 
1477	 0.396572858095169 
1478	 0.397229969501495 
1479	 0.397868514060974 
1480	 0.398500561714172 
1481	 0.399123907089233 
1482	 0.399742364883423 
1483	 0.400363683700562 
1484	 0.400933861732483 
1485	 0.401479035615921 
1486	 0.402031868696213 
1487	 0.402558088302612 
1488	 0.403078466653824 
1489	 0.40361076593399 
1490	 0.404153138399124 
1491	 0.404669135808945 
1492	 0.405164211988449 
1493	 0.405647903680801 
1494	 0.4061099588871 
1495	 0.406549543142319 
1496	 0.406980842351913 
1497	 0.407392352819443 
1498	 0.407772958278656 
1499	 0.408157378435135 
1500	 0.408533483743668 
1501	 0.408890724182129 
1502	 0.409226030111313 
1503	 0.40957036614418 
1504	 0.409911632537842 
1505	 0.410249263048172 
1506	 0.410589426755905 
1507	 0.410916209220886 
1508	 0.411235392093658 
1509	 0.411534339189529 
1510	 0.41179957985878 
1511	 0.412112891674042 
1512	 0.41242715716362 
1513	 0.4127576649189 
1514	 0.413148492574692 
1515	 0.413488924503326 
1516	 0.413799643516541 
1517	 0.414124548435211 
1518	 0.414444476366043 
1519	 0.414749532938004 
1520	 0.415049433708191 
1521	 0.415350586175919 
1522	 0.415636897087097 
1523	 0.415940374135971 
1524	 0.416258215904236 
1525	 0.416568338871002 
1526	 0.416862547397614 
1527	 0.417176365852356 
1528	 0.417502671480179 
1529	 0.41783481836319 
1530	 0.418186277151108 
1531	 0.418539375066757 
1532	 0.418857932090759 
1533	 0.419176608324051 
1534	 0.419530630111694 
1535	 0.419881790876389 
1536	 0.420266687870026 
1537	 0.420707106590271 
1538	 0.421112269163132 
1539	 0.421454697847366 
1540	 0.421813905239105 
1541	 0.422200500965118 
1542	 0.422569215297699 
1543	 0.422983258962631 
1544	 0.423378765583038 
1545	 0.423703789710999 
1546	 0.424092620611191 
1547	 0.424514710903168 
1548	 0.424933791160584 
1549	 0.425391525030136 
1550	 0.425824671983719 
1551	 0.426237136125565 
1552	 0.42667943239212 
1553	 0.427106440067291 
1554	 0.427524596452713 
1555	 0.427957534790039 
1556	 0.428380012512207 
1557	 0.42881640791893 
1558	 0.429302394390106 
1559	 0.429804921150208 
1560	 0.430265724658966 
1561	 0.430718183517456 
1562	 0.43118742108345 
1563	 0.431652814149857 
1564	 0.432151228189468 
1565	 0.432679086923599 
1566	 0.433151692152023 
1567	 0.433603167533875 
1568	 0.434105396270752 
1569	 0.434630215167999 
1570	 0.435140311717987 
1571	 0.435683578252792 
1572	 0.436195224523544 
1573	 0.436667829751968 
1574	 0.437179118394852 
1575	 0.437703520059586 
1576	 0.438229978084564 
1577	 0.438778877258301 
1578	 0.439301252365112 
1579	 0.439814984798431 
1580	 0.440345525741577 
1581	 0.440866112709045 
1582	 0.441380709409714 
1583	 0.44190239906311 
1584	 0.442432641983032 
1585	 0.442944765090942 
1586	 0.443502306938171 
1587	 0.444106459617615 
1588	 0.444673120975494 
1589	 0.445252001285553 
1590	 0.445794254541397 
1591	 0.44629094004631 
1592	 0.446827679872513 
1593	 0.447375535964966 
1594	 0.447910726070404 
1595	 0.448459953069687 
1596	 0.448989659547806 
1597	 0.449494957923889 
1598	 0.450019955635071 
1599	 0.45054018497467 
1600	 0.45107713341713 
1601	 0.451619923114777 
1602	 0.452169597148895 
1603	 0.45274356007576 
1604	 0.453311741352081 
1605	 0.453896582126617 
1606	 0.454443454742432 
1607	 0.454972743988037 
1608	 0.455502867698669 
1609	 0.45600488781929 
1610	 0.456517517566681 
1611	 0.457042783498764 
1612	 0.457545429468155 
1613	 0.4580337703228 
1614	 0.458527982234955 
1615	 0.458990335464478 
1616	 0.459509670734406 
1617	 0.460081964731216 
1618	 0.460610389709473 
1619	 0.461180508136749 
1620	 0.46166718006134 
1621	 0.462054520845413 
1622	 0.462500542402267 
1623	 0.462944030761719 
1624	 0.463382989168167 
1625	 0.463830053806305 
1626	 0.464310735464096 
1627	 0.464786112308502 
1628	 0.465287238359451 
1629	 0.465857207775116 
1630	 0.466351807117462 
1631	 0.466805577278137 
1632	 0.467276722192764 
1633	 0.467729598283768 
1634	 0.468206286430359 
1635	 0.468714654445648 
1636	 0.469188153743744 
1637	 0.469636648893356 
1638	 0.470088213682175 
1639	 0.470537275075912 
1640	 0.470974206924438 
1641	 0.471404641866684 
1642	 0.471845775842667 
1643	 0.472273021936417 
1644	 0.472707569599152 
1645	 0.473164021968842 
1646	 0.473592311143875 
1647	 0.474002361297607 
1648	 0.47442752122879 
1649	 0.474850237369537 
1650	 0.475273162126541 
1651	 0.475693821907043 
1652	 0.476115316152573 
1653	 0.47652280330658 
1654	 0.476974576711655 
1655	 0.477488666772842 
1656	 0.477926701307297 
1657	 0.478354156017303 
1658	 0.478744298219681 
1659	 0.479049295186996 
1660	 0.479421019554138 
1661	 0.47981333732605 
1662	 0.480221718549728 
1663	 0.480667918920517 
1664	 0.481069833040237 
1665	 0.481476932764053 
1666	 0.481830269098282 
1667	 0.482164978981018 
1668	 0.482522964477539 
1669	 0.482888758182526 
1670	 0.483308285474777 
1671	 0.483768135309219 
1672	 0.484166741371155 
1673	 0.484512090682983 
1674	 0.484837204217911 
1675	 0.485150754451752 
1676	 0.485523551702499 
1677	 0.48597976565361 
1678	 0.486417979001999 
1679	 0.486763685941696 
1680	 0.487063765525818 
1681	 0.487361699342728 
1682	 0.487671226263046 
1683	 0.488080710172653 
1684	 0.488549143075943 
1685	 0.488935917615891 
1686	 0.48931285738945 
1687	 0.489690810441971 
1688	 0.490021467208862 
1689	 0.490368664264679 
1690	 0.490670084953308 
1691	 0.490936815738678 
1692	 0.491223722696304 
1693	 0.491533905267715 
1694	 0.491902500391006 
1695	 0.492249578237534 
1696	 0.492571890354156 
1697	 0.492880403995514 
1698	 0.493188560009003 
1699	 0.493551790714264 
1700	 0.493877828121185 
1701	 0.494175463914871 
1702	 0.494476228952408 
1703	 0.494725465774536 
1704	 0.495012044906616 
1705	 0.495347112417221 
1706	 0.495588749647141 
1707	 0.495816230773926 
1708	 0.496094137430191 
1709	 0.496339648962021 
1710	 0.496659964323044 
1711	 0.497014582157135 
1712	 0.497309803962708 
1713	 0.497634708881378 
1714	 0.497950077056885 
1715	 0.498211681842804 
1716	 0.498430818319321 
1717	 0.498628258705139 
1718	 0.498836368322372 
1719	 0.499069362878799 
1720	 0.499350398778915 
1721	 0.499627202749252 
1722	 0.499865144491196 
1723	 0.500124096870422 
1724	 0.50038081407547 
1725	 0.500584542751312 
1726	 0.500769913196564 
1727	 0.500959694385529 
1728	 0.50111585855484 
1729	 0.501312613487244 
1730	 0.501567244529724 
1731	 0.501743853092194 
1732	 0.501884400844574 
1733	 0.50201016664505 
1734	 0.502066791057587 
1735	 0.50218939781189 
1736	 0.502364814281464 
1737	 0.502549946308136 
1738	 0.502671837806702 
1739	 0.50282096862793 
1740	 0.502981185913086 
1741	 0.503108680248261 
1742	 0.503217279911041 
1743	 0.50330662727356 
1744	 0.503414988517761 
1745	 0.503541350364685 
1746	 0.503662705421448 
1747	 0.503777623176575 
1748	 0.503826916217804 
1749	 0.503867387771606 
1750	 0.503942668437958 
1751	 0.504018127918243 
1752	 0.50412255525589 
1753	 0.504201829433441 
1754	 0.504289746284485 
1755	 0.504396557807922 
1756	 0.504431128501892 
1757	 0.504469811916351 
1758	 0.504483342170715 
1759	 0.504490435123444 
1760	 0.504556119441986 
1761	 0.504602253437042 
1762	 0.504650950431824 
1763	 0.50470381975174 
1764	 0.504753768444061 
1765	 0.504807889461517 
1766	 0.504894435405731 
1767	 0.504950404167175 
1768	 0.504954218864441 
1769	 0.504987001419067 
1770	 0.505024433135986 
1771	 0.505091190338135 
1772	 0.505135655403137 
1773	 0.505164980888367 
1774	 0.50518137216568 
1775	 0.505118608474731 
1776	 0.505106568336487 
1777	 0.505133807659149 
1778	 0.505191445350647 
1779	 0.505310297012329 
1780	 0.505418837070465 
1781	 0.505446016788483 
1782	 0.505481779575348 
1783	 0.505523800849915 
1784	 0.505567491054535 
1785	 0.505632817745209 
1786	 0.505672931671143 
1787	 0.505685746669769 
1788	 0.505663275718689 
1789	 0.505634307861328 
1790	 0.505599319934845 
1791	 0.505577921867371 
1792	 0.505563318729401 
1793	 0.505473792552948 
1794	 0.50539892911911 
1795	 0.505392968654633 
1796	 0.505375385284424 
1797	 0.505400419235229 
1798	 0.505463480949402 
1799	 0.505454421043396 
1800	 0.505427360534668 
1801	 0.505429208278656 
1802	 0.505390465259552 
1803	 0.505370140075684 
1804	 0.505356132984161 
1805	 0.505313515663147 
1806	 0.505324721336365 
1807	 0.50529944896698 
1808	 0.505227386951447 
1809	 0.505111336708069 
1810	 0.504958868026733 
1811	 0.504773497581482 
1812	 0.50461882352829 
1813	 0.504527032375336 
1814	 0.504378020763397 
1815	 0.504281461238861 
1816	 0.504241764545441 
1817	 0.504166722297668 
1818	 0.504100620746613 
1819	 0.504043400287628 
1820	 0.503998994827271 
1821	 0.503943622112274 
1822	 0.503948628902435 
1823	 0.503990828990936 
1824	 0.503958404064178 
1825	 0.503919363021851 
1826	 0.503826558589935 
1827	 0.503617346286774 
1828	 0.503392994403839 
1829	 0.5031898021698 
1830	 0.502956986427307 
1831	 0.517130613327026 
1832	 0.516950190067291 
1833	 0.51666933298111 
1834	 0.516307353973389 
1835	 0.515966773033142 
1836	 0.515572667121887 
1837	 0.515168190002441 
1838	 0.514733791351318 
1839	 0.514408886432648 
1840	 0.513988018035889 
1841	 0.513488531112671 
1842	 0.512948513031006 
1843	 0.512335598468781 
1844	 0.511746466159821 
1845	 0.511085331439972 
1846	 0.510489404201508 
1847	 0.509957790374756 
1848	 0.509378671646118 
1849	 0.508722484111786 
1850	 0.508046448230743 
1851	 0.507238566875458 
1852	 0.50648033618927 
1853	 0.505701124668121 
1854	 0.504845142364502 
1855	 0.504027903079987 
1856	 0.503289103507996 
1857	 0.502359211444855 
1858	 0.501340448856354 
1859	 0.500338733196259 
1860	 0.499228715896606 
1861	 0.498062670230865 
1862	 0.496987074613571 
1863	 0.495985239744186 
1864	 0.49493795633316 
1865	 0.493746697902679 
1866	 0.492501944303513 
1867	 0.491196036338806 
1868	 0.489793241024017 
1869	 0.488299757242203 
1870	 0.486789166927338 
1871	 0.485127449035645 
1872	 0.483337998390198 
1873	 0.481555670499802 
1874	 0.479704797267914 
1875	 0.477796137332916 
1876	 0.475875318050385 
1877	 0.473847210407257 
1878	 0.471703112125397 
1879	 0.469518631696701 
1880	 0.46725395321846 
1881	 0.464815616607666 
1882	 0.462298184633255 
1883	 0.459624648094177 
1884	 0.45692178606987 
1885	 0.454240560531616 
1886	 0.45133039355278 
1887	 0.448332935571671 
1888	 0.445234328508377 
1889	 0.442021936178207 
1890	 0.438573092222214 
1891	 0.435139924287796 
1892	 0.431608021259308 
1893	 0.42791023850441 
1894	 0.424265205860138 
1895	 0.420563161373138 
1896	 0.416906416416168 
1897	 0.413299083709717 
1898	 0.409726768732071 
1899	 0.406306535005569 
1900	 0.402982652187347 
1901	 0.399765402078629 
1902	 0.39674499630928 
1903	 0.393933027982712 
1904	 0.391414284706116 
1905	 0.389175146818161 
1906	 0.387212544679642 
1907	 0.385522365570068 
1908	 0.384010165929794 
1909	 0.382735729217529 
1910	 0.381691694259644 
1911	 0.380883365869522 
1912	 0.380234241485596 
1913	 0.379835993051529 
1914	 0.37962144613266 
1915	 0.37951397895813 
1916	 0.379575073719025 
1917	 0.379726350307465 
1918	 0.379951864480972 
1919	 0.380218625068665 
1920	 0.380447119474411 
1921	 0.380701154470444 
1922	 0.380984425544739 
1923	 0.381255894899368 
1924	 0.381557315587997 
1925	 0.381932437419891 
1926	 0.382266789674759 
1927	 0.382620722055435 
1928	 0.382912635803223 
1929	 0.383112400770187 
1930	 0.383385837078094 
1931	 0.383658051490784 
1932	 0.38392162322998 
1933	 0.384168535470963 
1934	 0.384461164474487 
1935	 0.384673953056335 
1936	 0.384837210178375 
1937	 0.384984463453293 
1938	 0.385154336690903 
1939	 0.385350197553635 
1940	 0.385477304458618 
1941	 0.385574907064438 
1942	 0.385636210441589 
1943	 0.385685056447983 
1944	 0.385792225599289 
1945	 0.385992228984833 
1946	 0.386076778173447 
1947	 0.386120796203613 
1948	 0.386188894510269 
1949	 0.386263191699982 
1950	 0.386343330144882 
1951	 0.386551052331924 
1952	 0.386880666017532 
1953	 0.387156695127487 
1954	 0.387431621551514 
1955	 0.387688189744949 
1956	 0.387841075658798 
1957	 0.388047754764557 
1958	 0.388244092464447 
1959	 0.388456881046295 
1960	 0.38870096206665 
1961	 0.388942092657089 
1962	 0.389133721590042 
1963	 0.389302164316177 
1964	 0.389527171850204 
1965	 0.389816880226135 
1966	 0.390135020017624 
1967	 0.390436708927155 
1968	 0.390705078840256 
1969	 0.390922874212265 
1970	 0.391181290149689 
1971	 0.391512930393219 
1972	 0.391700208187103 
1973	 0.39181312918663 
1974	 0.391939580440521 
1975	 0.392042309045792 
1976	 0.392105400562286 
1977	 0.392334699630737 
1978	 0.392598569393158 
1979	 0.39273139834404 
1980	 0.392923533916473 
1981	 0.393154412508011 
1982	 0.393357992172241 
1983	 0.393658965826035 
1984	 0.394070237874985 
1985	 0.394440740346909 
1986	 0.394824832677841 
1987	 0.395266979932785 
1988	 0.395690649747849 
1989	 0.396161109209061 
1990	 0.396614134311676 
1991	 0.397018045186996 
1992	 0.397471338510513 
1993	 0.397953480482101 
1994	 0.398462921380997 
1995	 0.399045377969742 
1996	 0.399625420570374 
1997	 0.400159865617752 
1998	 0.400802910327911 
1999	 0.401516199111938 
2000	 0.402253478765488 
2001	 0.403078705072403 
2002	 0.403957515954971 
2003	 0.404770463705063 
2004	 0.405620396137238 
2005	 0.40653258562088 
2006	 0.407396525144577 
2007	 0.408333539962769 
2008	 0.409357249736786 
2009	 0.410374462604523 
2010	 0.411394566297531 
2011	 0.412477880716324 
2012	 0.413630574941635 
2013	 0.414740890264511 
2014	 0.415885955095291 
2015	 0.417018204927444 
2016	 0.418200016021729 
2017	 0.419456303119659 
2018	 0.420753479003906 
2019	 0.422136873006821 
2020	 0.423461705446243 
2021	 0.424733638763428 
2022	 0.426099479198456 
2023	 0.427540838718414 
2024	 0.428895711898804 
2025	 0.430304050445557 
2026	 0.431642204523087 
2027	 0.432909667491913 
2028	 0.434105515480042 
2029	 0.43535515666008 
2030	 0.436675041913986 
2031	 0.438003242015839 
2032	 0.43939620256424 
2033	 0.440821051597595 
2034	 0.442151695489883 
2035	 0.443404078483582 
2036	 0.444543659687042 
2037	 0.445757061243057 
2038	 0.446950107812881 
2039	 0.448095709085464 
2040	 0.449289947748184 
2041	 0.450378060340881 
2042	 0.451325684785843 
2043	 0.452332615852356 
2044	 0.453269451856613 
2045	 0.454241812229156 
2046	 0.45540115237236 
2047	 0.456497877836227 
2048	 0.457497179508209 
2049	 0.458539247512817 
2050	 0.459488660097122 
2051	 0.460212856531143 
2052	 0.46108615398407 
2053	 0.462124615907669 
2054	 0.462961375713348 
2055	 0.46362316608429 
2056	 0.464454501867294 
2057	 0.465342491865158 
2058	 0.466087937355042 
2059	 0.466894656419754 
2060	 0.467735320329666 
2061	 0.468355476856232 
2062	 0.468989491462708 
2063	 0.4697325527668 
2064	 0.470371335744858 
2065	 0.470999360084534 
2066	 0.471608579158783 
2067	 0.472169399261475 
2068	 0.472637951374054 
2069	 0.473204374313354 
2070	 0.473796159029007 
2071	 0.474333763122559 
2072	 0.474880188703537 
2073	 0.475464463233948 
2074	 0.475910574197769 
2075	 0.476367235183716 
2076	 0.476893872022629 
2077	 0.477352112531662 
2078	 0.477759599685669 
2079	 0.478190958499908 
2080	 0.47858390212059 
2081	 0.478925675153732 
2082	 0.479255467653275 
2083	 0.479584962129593 
2084	 0.479860037565231 
2085	 0.480100393295288 
2086	 0.480309069156647 
2087	 0.480535924434662 
2088	 0.480657011270523 
2089	 0.48069629073143 
2090	 0.480673044919968 
2091	 0.480680614709854 
2092	 0.480559408664703 
2093	 0.480482399463654 
2094	 0.480345785617828 
2095	 0.480082839727402 
2096	 0.479902416467667 
2097	 0.479724019765854 
2098	 0.479577422142029 
2099	 0.479383289813995 
2100	 0.479153633117676 
2101	 0.47897469997406 
2102	 0.478825718164444 
2103	 0.478617250919342 
2104	 0.47841289639473 
2105	 0.478211343288422 
2106	 0.477945744991302 
2107	 0.477683633565903 
2108	 0.477518320083618 
2109	 0.477480292320251 
2110	 0.477377235889435 
2111	 0.477269947528839 
2112	 0.477268010377884 
2113	 0.477202713489532 
2114	 0.477202445268631 
2115	 0.47736319899559 
2116	 0.477311939001083 
2117	 0.477072566747665 
2118	 0.477081745862961 
2119	 0.47711780667305 
2120	 0.477133959531784 
2121	 0.477308452129364 
2122	 0.477427363395691 
2123	 0.477465897798538 
2124	 0.477518171072006 
2125	 0.477657914161682 
2126	 0.477749913930893 
2127	 0.477664977312088 
2128	 0.477563083171844 
2129	 0.477411955595016 
2130	 0.477252662181854 
2131	 0.477266490459442 
2132	 0.477315664291382 
2133	 0.477273046970367 
2134	 0.477301776409149 
2135	 0.477208346128464 
2136	 0.476957082748413 
2137	 0.476738184690475 
2138	 0.476565599441528 
2139	 0.476267874240875 
2140	 0.475907176733017 
2141	 0.475480735301971 
2142	 0.475050956010818 
2143	 0.47441965341568 
2144	 0.473642528057098 
2145	 0.472759544849396 
2146	 0.471846073865891 
2147	 0.470824271440506 
2148	 0.469853013753891 
2149	 0.468900740146637 
2150	 0.467830389738083 
2151	 0.466771066188812 
2152	 0.465674638748169 
2153	 0.464505434036255 
2154	 0.463415145874023 
2155	 0.462302982807159 
2156	 0.461260378360748 
2157	 0.460319370031357 
2158	 0.459343820810318 
2159	 0.458317577838898 
2160	 0.457415044307709 
2161	 0.456542730331421 
2162	 0.455729931592941 
2163	 0.455026149749756 
2164	 0.454415947198868 
2165	 0.45357084274292 
2166	 0.452739745378494 
2167	 0.452048182487488 
2168	 0.451274305582047 
2169	 0.450580179691315 
2170	 0.450028717517853 
2171	 0.449337899684906 
2172	 0.448535114526749 
2173	 0.447763949632645 
2174	 0.446970552206039 
2175	 0.446214377880096 
2176	 0.445517480373383 
2177	 0.444658517837524 
2178	 0.443794220685959 
2179	 0.442827552556992 
2180	 0.441713362932205 
2181	 0.44056099653244 
2182	 0.439423352479935 
2183	 0.438096046447754 
2184	 0.436551481485367 
2185	 0.435039937496185 
2186	 0.433500051498413 
2187	 0.431799501180649 
2188	 0.429987162351608 
2189	 0.428279846906662 
2190	 0.426515966653824 
2191	 0.424777895212173 
2192	 0.423215627670288 
2193	 0.421501487493515 
2194	 0.41961345076561 
2195	 0.417790532112122 
2196	 0.415923595428467 
2197	 0.414007067680359 
2198	 0.412050515413284 
2199	 0.410183817148209 
2200	 0.408057004213333 
2201	 0.405682593584061 
2202	 0.403418034315109 
2203	 0.401047170162201 
2204	 0.39868238568306 
2205	 0.396242618560791 
2206	 0.394051760435104 
2207	 0.391608864068985 
2208	 0.389849424362183 
2209	 0.388571739196777 
2210	 0.387548834085464 
2211	 0.386900186538696 
2212	 0.386708647012711 
2213	 0.386682957410812 
2214	 0.386720210313797 
2215	 0.3869688808918 
2216	 0.387165784835815 
2217	 0.386982887983322 
2218	 0.386458337306976 
2219	 0.38579860329628 
2220	 0.384804457426071 
2221	 0.383535176515579 
2222	 0.381991982460022 
2223	 0.380225121974945 
2224	 0.37808632850647 
2225	 0.37583601474762 
2226	 0.373363494873047 
2227	 0.370812088251114 
2228	 0.368040889501572 
2229	 0.365164756774902 
2230	 0.362248629331589 
2231	 0.359114825725555 
2232	 0.355674237012863 
2233	 0.352269113063812 
2234	 0.348681777715683 
2235	 0.345166265964508 
2236	 0.34161838889122 
2237	 0.338140845298767 
2238	 0.334693282842636 
2239	 0.331266790628433 
2240	 0.327812016010284 
2241	 0.324584543704987 
2242	 0.321501612663269 
2243	 0.318553775548935 
2244	 0.315922021865845 
2245	 0.313570618629456 
2246	 0.311407685279846 
2247	 0.309559106826782 
2248	 0.308073729276657 
2249	 0.306932091712952 
2250	 0.30615097284317 
2251	 0.305645316839218 
2252	 0.305367439985275 
2253	 0.305349111557007 
2254	 0.305624753236771 
2255	 0.306241810321808 
2256	 0.306955695152283 
2257	 0.30793896317482 
2258	 0.30910325050354 
2259	 0.310534477233887 
2260	 0.311856657266617 
2261	 0.313459515571594 
2262	 0.314802378416061 
2263	 0.316028624773026 
2264	 0.317152500152588 
2265	 0.318234890699387 
2266	 0.319128751754761 
2267	 0.319867074489594 
2268	 0.320453256368637 
2269	 0.32080951333046 
2270	 0.321163326501846 
2271	 0.321430653333664 
2272	 0.321609437465668 
2273	 0.321586281061172 
2274	 0.321651607751846 
2275	 0.321599394083023 
2276	 0.321282297372818 
2277	 0.320741534233093 
2278	 0.319926530122757 
2279	 0.319041877985001 
2280	 0.317918658256531 
2281	 0.316608726978302 
2282	 0.315305948257446 
2283	 0.313540130853653 
2284	 0.311438113451004 
2285	 0.309470057487488 
2286	 0.307529926300049 
2287	 0.305572777986526 
2288	 0.303678095340729 
2289	 0.301911324262619 
2290	 0.300054132938385 
2291	 0.298232346773148 
2292	 0.296420156955719 
2293	 0.294748157262802 
2294	 0.293015450239182 
2295	 0.291620463132858 
2296	 0.29052010178566 
2297	 0.289349853992462 
2298	 0.288357883691788 
2299	 0.287300854921341 
2300	 0.286217987537384 
2301	 0.285221099853516 
2302	 0.284310340881348 
2303	 0.283312857151031 
2304	 0.282341629266739 
2305	 0.281317174434662 
2306	 0.280330628156662 
2307	 0.279129326343536 
2308	 0.277793437242508 
2309	 0.276403725147247 
2310	 0.274673730134964 
2311	 0.273298561573029 
2312	 0.272178560495377 
2313	 0.270861059427261 
2314	 0.269537478685379 
2315	 0.268314063549042 
2316	 0.266985923051834 
2317	 0.265764862298965 
2318	 0.264754503965378 
2319	 0.263704568147659 
2320	 0.262893676757813 
2321	 0.262344509363174 
2322	 0.261860996484756 
2323	 0.261379152536392 
2324	 0.260721474885941 
2325	 0.260029375553131 
2326	 0.259496003389359 
2327	 0.259259849786758 
2328	 0.259263783693314 
2329	 0.2591592669487 
2330	 0.258940011262894 
2331	 0.258865773677826 
2332	 0.258835464715958 
2333	 0.258747577667236 
2334	 0.258998721837997 
2335	 0.259330540895462 
2336	 0.259331911802292 
2337	 0.259443551301956 
2338	 0.259620308876038 
2339	 0.259661912918091 
2340	 0.25997868180275 
2341	 0.260435223579407 
2342	 0.260870635509491 
2343	 0.261597037315369 
2344	 0.262279212474823 
2345	 0.262865841388702 
2346	 0.263594537973404 
2347	 0.264227360486984 
2348	 0.264937162399292 
2349	 0.265925496816635 
2350	 0.266774594783783 
2351	 0.267558217048645 
2352	 0.268417865037918 
2353	 0.26935151219368 
2354	 0.270179659128189 
2355	 0.270937711000443 
2356	 0.271889299154282 
2357	 0.272922039031982 
2358	 0.2738356590271 
2359	 0.274832159280777 
2360	 0.275779783725739 
2361	 0.276573657989502 
2362	 0.277441442012787 
2363	 0.278351604938507 
2364	 0.279384344816208 
2365	 0.280466467142105 
2366	 0.281468480825424 
2367	 0.282652318477631 
2368	 0.283644497394562 
2369	 0.284394353628159 
2370	 0.285244524478912 
2371	 0.286191463470459 
2372	 0.286906063556671 
2373	 0.287552714347839 
2374	 0.288060933351517 
2375	 0.288354247808456 
2376	 0.288665860891342 
2377	 0.288905113935471 
2378	 0.289066791534424 
2379	 0.28913539648056 
2380	 0.289255529642105 
2381	 0.289311081171036 
2382	 0.289344102144241 
2383	 0.289428293704987 
2384	 0.289398610591888 
2385	 0.289299964904785 
2386	 0.289174467325211 
2387	 0.288885205984116 
2388	 0.28877592086792 
2389	 0.288683533668518 
2390	 0.288625478744507 
2391	 0.288641333580017 
2392	 0.288831174373627 
2393	 0.289045721292496 
2394	 0.289361447095871 
2395	 0.290089786052704 
2396	 0.290484189987183 
2397	 0.290697485208511 
2398	 0.290985494852066 
2399	 0.291075974702835 
2400	 0.291429340839386 
2401	 0.292007565498352 
2402	 0.29247722029686 
2403	 0.293068736791611 
2404	 0.293507754802704 
2405	 0.29385980963707 
2406	 0.294117599725723 
2407	 0.294267505407333 
2408	 0.294393450021744 
2409	 0.294377654790878 
2410	 0.294436156749725 
2411	 0.29450324177742 
2412	 0.294693529605865 
2413	 0.295149773359299 
2414	 0.295048266649246 
2415	 0.294741570949554 
2416	 0.294402271509171 
2417	 0.29353454709053 
2418	 0.293054848909378 
2419	 0.292938709259033 
2420	 0.292416572570801 
2421	 0.291871547698975 
2422	 0.291017860174179 
2423	 0.289550274610519 
2424	 0.288837969303131 
2425	 0.288317143917084 
2426	 0.287747085094452 
2427	 0.28794851899147 
2428	 0.287066608667374 
2429	 0.285142004489899 
2430	 0.284296184778214 
2431	 0.283621042966843 
2432	 0.282749831676483 
2433	 0.282389283180237 
2434	 0.281753182411194 
2435	 0.280515432357788 
2436	 0.279756426811218 
2437	 0.279580533504486 
2438	 0.279046356678009 
2439	 0.278309911489487 
2440	 0.27760112285614 
2441	 0.276900559663773 
2442	 0.276063531637192 
2443	 0.275118440389633 
2444	 0.274230808019638 
2445	 0.27315816283226 
2446	 0.27254930138588 
2447	 0.272195875644684 
2448	 0.271697252988815 
2449	 0.271484106779099 
2450	 0.270922511816025 
2451	 0.27014085650444 
2452	 0.269285976886749 
2453	 0.268359810113907 
2454	 0.267358094453812 
2455	 0.266274183988571 
2456	 0.265793532133102 
2457	 0.265103906393051 
2458	 0.264793992042542 
2459	 0.264389991760254 
2460	 0.263401746749878 
2461	 0.262923032045364 
2462	 0.262072175741196 
2463	 0.26076552271843 
2464	 0.260303437709808 
2465	 0.259814947843552 
2466	 0.259905636310577 
2467	 0.259606033563614 
2468	 0.259053081274033 
2469	 0.258363872766495 
2470	 0.256920099258423 
2471	 0.256358414888382 
2472	 0.256655812263489 
2473	 0.256211400032043 
2474	 0.255964934825897 
2475	 0.25551450252533 
2476	 0.253961503505707 
2477	 0.253220081329346 
2478	 0.253071308135986 
2479	 0.252928286790848 
2480	 0.253334909677505 
2481	 0.253191590309143 
2482	 0.253035992383957 
2483	 0.252516180276871 
2484	 0.250995248556137 
2485	 0.250458329916 
2486	 0.250116139650345 
2487	 0.250157356262207 
2488	 0.251667320728302 
2489	 0.25148805975914 
2490	 0.250189065933228 
2491	 0.249830573797226 
2492	 0.248799338936806 
2493	 0.248609974980354 
2494	 0.250008851289749 
2495	 0.249964520335197 
2496	 0.248734071850777 
2497	 0.249082431197166 
2498	 0.250257253646851 
2499	 0.250180333852768 
2500	 0.250518381595612 
